P_Id,PPG_Rate_Mean,HRV_MeanNN,HRV_SDNN,HRV_SDANN1,HRV_SDNNI1,HRV_SDANN2,HRV_SDNNI2,HRV_SDANN5,HRV_SDNNI5,HRV_RMSSD,HRV_SDSD,HRV_CVNN,HRV_CVSD,HRV_MedianNN,HRV_MadNN,HRV_MCVNN,HRV_IQRNN,HRV_SDRMSSD,HRV_Prc20NN,HRV_Prc80NN,HRV_pNN50,HRV_pNN20,HRV_MinNN,HRV_MaxNN,HRV_HTI,HRV_TINN,HRV_ULF,HRV_VLF,HRV_LF,HRV_HF,HRV_VHF,HRV_TP,HRV_LFHF,HRV_LFn,HRV_HFn,HRV_LnHF,HRV_SD1,HRV_SD2,HRV_SD1SD2,HRV_S,HRV_CSI,HRV_CVI,HRV_CSI_Modified,HRV_PIP,HRV_IALS,HRV_PSS,HRV_PAS,HRV_GI,HRV_SI,HRV_AI,HRV_PI,HRV_C1d,HRV_C1a,HRV_SD1d,HRV_SD1a,HRV_C2d,HRV_C2a,HRV_SD2d,HRV_SD2a,HRV_Cd,HRV_Ca,HRV_SDNNd,HRV_SDNNa,HRV_DFA_alpha1,HRV_MFDFA_alpha1_Width,HRV_MFDFA_alpha1_Peak,HRV_MFDFA_alpha1_Mean,HRV_MFDFA_alpha1_Max,HRV_MFDFA_alpha1_Delta,HRV_MFDFA_alpha1_Asymmetry,HRV_MFDFA_alpha1_Fluctuation,HRV_MFDFA_alpha1_Increment,HRV_DFA_alpha2,HRV_MFDFA_alpha2_Width,HRV_MFDFA_alpha2_Peak,HRV_MFDFA_alpha2_Mean,HRV_MFDFA_alpha2_Max,HRV_MFDFA_alpha2_Delta,HRV_MFDFA_alpha2_Asymmetry,HRV_MFDFA_alpha2_Fluctuation,HRV_MFDFA_alpha2_Increment,HRV_ApEn,HRV_SampEn,HRV_ShanEn,HRV_FuzzyEn,HRV_MSEn,HRV_CMSEn,HRV_RCMSEn,HRV_CD,HRV_HFD,HRV_KFD,HRV_LZC,anxiety_meter
101,72.16065613116282,838.7873563218391,161.14469734009813,,,,,,,216.3342254702815,216.9620287320969,0.1921162689513259,0.2579130739630212,853.5,106.0059,0.1242014059753954,144.5,0.7448876708703454,754.2,933.4,72.41379310344827,83.9080459770115,308.0,1276.0,17.4,593.75,,0.0009393331403501,0.0165488962652541,0.1104769454873565,0.0261863992658723,0.1541515741588331,0.1497950200582624,0.1073547017314442,0.7166773747864839,-2.202948417915761,153.4153217764563,169.39457115065372,0.9056684682061856,81642.83853017738,1.1041568025225084,5.6188882056697445,748.1526721855093,0.6149425287356322,0.6242774566473989,0.8611111111111112,0.1777777777777777,50.08944543828267,50.96128013649827,49.37140790878936,42.19653179190752,0.3838450409226915,0.6161549590773084,95.04888583078927,120.42427418902508,0.6676526458255709,0.332347354174429,138.41232853192312,97.65525098879662,0.5397630148885741,0.4602369851114259,118.72713124493372,109.63246293785056,0.601749626940976,1.8357008483329724,1.0016342597349597,1.115877362394693,-0.1162987282071998,-0.109885875385441,-0.4377659476687177,0.001716232778989,0.2573152816737603,0.2247474781104931,3.4285888082222167,0.581738615125808,1.130904256193101,-3.8106603019663527,-2.6053801102544107,-0.3398274999468236,0.0005570283616679,0.4885778351712157,0.905663479917736,1.6625477377480489,7.1037506797070415,1.2916616441975024,1.229793317584892,1.392335932392906,1.912396242468234,1.6914719799278457,1.9653840053684355,4.166547520184005,1.1977150453089906,7.0
102,94.33351399369762,648.1550387596899,196.75113948566852,29.61792987808111,192.37344274713843,,,,,269.6057288472137,270.13177172282934,0.3035556737507923,0.4159587023548124,636.5,152.7078,0.2399179890023566,194.75,0.7297735857726076,519.4,764.2,78.68217054263566,89.92248062015504,307.0,2071.0,25.8,320.3125,,0.0079209543332689,0.0547572016967618,0.0678029631756996,0.0188930883300118,0.1493742075357423,0.8075930480334333,0.3665773536148104,0.4539134586503208,-2.6911493803344717,191.0120075991491,203.06997559871917,0.9406216110283212,121858.62081526768,1.063126753920489,5.792826368472806,863.5564959079168,0.6937984496124031,0.7003891050583657,0.9055555555555556,0.3275862068965517,49.97466712603612,49.55937363553197,50.31490918327347,49.80544747081712,0.532043551224175,0.4679564487758251,139.32668024511673,130.66624647838478,0.4838509895699691,0.516149010430031,141.2542532105019,145.89260070205,0.5064740738388294,0.4935259261611706,140.2937772643206,138.48884234543556,0.6924345494715326,2.6790632762990514,1.042177455355468,1.6893988116215408,-1.4747076924372582,-1.583753298021267,-0.258415054249795,0.0064195751325837,0.6108715424427337,0.5097934476560944,0.4227622721184221,0.4351541853181757,0.398839554459149,1.0069817877689755,0.8268832220445426,-0.5858984664763427,0.0001334617485828,0.0159965451313248,1.094277299639263,1.868132448012629,7.555224385300213,1.3719112515735032,1.1740065218204945,1.288953791832139,1.8395864074897617,1.7074194756829304,1.967040671034888,2.788035653744306,1.1178456635474308,16.0
103,91.26928723541732,673.4263959390863,240.47016216473992,,,,,,,313.7008437791571,314.5009384197064,0.3570845509098387,0.4658279593298454,609.0,203.1162,0.3335241379310344,301.0,0.7665588631123639,473.0,858.4000000000001,84.77157360406092,94.9238578680203,307.0,1511.0,24.625,203.125,,0.003701680345921,0.0501732539023765,0.0722597016835083,0.0134365153523464,0.1395711512841524,0.6943462640093832,0.3594815507413061,0.5177266291684811,-2.6274886816477445,222.3857462461072,257.10522280053635,0.8649600495227406,179625.38808252866,1.156122760296005,5.961337829402854,1188.9807994827015,0.649746192893401,0.6564102564102564,0.921875,0.1666666666666666,50.28855103940428,50.455752095326325,50.09960873739161,51.28205128205128,0.4838801678410491,0.5161198321589509,154.69644386213196,159.76685738271473,0.5147489666279947,0.4852510333720049,184.46273376088772,179.0994010173492,0.5015379333705404,0.4984620666294597,170.23144522991325,169.70863879414324,0.7993363785290254,1.9691866104973328,0.7975050010534579,1.7113087986382367,-1.4155936964919995,-2.270351926213089,-0.0359486029848685,0.002580404786966,0.3341093613208383,0.5647798326647161,0.48953524924022,0.6168610423619341,0.4449678611061822,0.9939819272270232,0.9836328569498508,-0.8511354524981347,7.718432350645406e-05,0.0158718696063622,0.9623264302161868,1.7466390339475857,7.316139827037643,1.4710383695527425,1.3872963637056248,1.3153891024229252,1.8760661742548344,1.833764980612268,1.9392311019253687,4.690344138516674,1.122027932813375,10.0
104,76.86283579055817,800.4556213017752,295.65240527517886,,,,,,,419.5626975111791,420.8167664515258,0.3693551490017167,0.5241548517441196,744.0,182.3598,0.2451072580645161,243.0,0.7046679960563018,600.6,933.8000000000002,78.10650887573965,88.75739644970415,309.0,2596.0,28.166666666666668,414.0625,,0.0072215270658178,0.054656341554652,0.0722110826820473,0.0101388006161718,0.1442277519186891,0.7568968574437447,0.3789585626035793,0.5006739807104365,-2.628161745111889,297.56238919486947,295.4247014145465,1.0072359818596324,276168.8649825225,0.9928160014237452,6.148144825013703,1173.2094831207755,0.6745562130177515,0.6845238095238095,0.9130434782608696,0.2142857142857142,49.92353476068448,50.41203384162686,49.54426222080888,48.21428571428572,0.4716967408681821,0.528303259131818,204.36650328434607,216.28177313223037,0.5227801626009414,0.4772198373990586,213.6025116305204,204.0826333400453,0.4970542869604321,0.5029457130395678,209.0355240617456,210.2706905636505,0.7392490518254484,1.9906416975313668,0.7358100337560529,1.697582760811181,-0.7160680357091653,-1.6420937561492646,-0.0168529182083137,0.0066323712310269,0.4863230610776927,0.6477373489519612,0.6694115136249945,0.6477373489519612,0.6195376808362206,0.5147879387063368,0.5812488646079577,-0.5421260578011781,0.0003510623295432,0.0208248546660116,0.8910389318768392,1.3777106174284992,7.143425146315752,1.156025445886113,1.196983118594806,1.3020911680845777,1.612781808878368,1.5721968517267386,1.974732508794524,2.787734127224869,1.0510124643240972,8.0
105,68.40994007118394,918.48322147651,655.4505218099252,,,,,,,920.3606703426182,923.485197823644,0.7136227494240495,1.00204407529959,776.0,324.6894,0.4184141752577319,465.0,0.7121670263962104,564.0,1143.8000000000002,85.23489932885906,92.61744966442951,301.0,5594.0,29.8,453.125,,,0.0407928532582021,0.0171220553620825,0.0006832574048642,0.0585981660251489,2.382474089444865,0.6961455626562578,0.2921943897482071,-4.067387859278301,653.0026457064989,661.6185557593285,0.9869775265856302,1357289.5034428718,1.0131942957803912,6.839642600464562,2681.39258671125,0.6375838926174496,0.6486486486486486,0.9270833333333334,0.1395348837209302,49.89042699443287,50.304235455407046,49.50649699237832,50.0,0.4853938410472735,0.5146061589527264,454.9486440330193,468.438664408613,0.5232187044181883,0.4767812955818118,478.5742280431576,456.84332279016127,0.5045541496558469,0.495445850344153,466.91089109946194,462.6773194629712,0.5640939189175102,2.5175088837509234,0.964057651639401,1.1446805153167765,-1.6749015071391238,-1.2578318950247154,-0.4282533361279506,0.0012309760566377,0.3206950013488876,0.7565653134000612,0.2303785114007337,0.5414789069928281,0.656668162693195,1.0,-0.2536324419852116,0.0,0.0004419628435386,0.0153190859912941,1.0973193943357078,1.6683426158534154,7.084940332542698,1.1330122708457069,1.4582322905366594,1.3027503157242006,1.4268642671099674,1.4276509765611354,1.9849277497030813,2.193969321014947,1.1628190905442406,15.0
106,77.98311620138425,797.979381443299,313.390235947421,39.24585116721363,299.17086004349704,,,,,458.9377123686796,460.1300418212684,0.3927297411877918,0.57512477520234,750.5,250.5594,0.3338566289140572,343.5,0.682860064669657,547.2,972.0,82.9896907216495,93.29896907216497,308.0,2083.0,27.714285714285715,593.75,,0.0049650343868247,0.0442436722313237,0.1313214810286478,0.0364831408945991,0.2170133285413955,0.3369111579062375,0.2038753680647049,0.6051309470772812,-2.030106908399488,325.3610727994685,301.93278731875785,1.0775943735318048,308621.1891598086,0.9279929670776862,6.196395850286682,1120.7660126478804,0.6391752577319587,0.6476683937823834,0.88,0.2391304347826087,50.15973950173562,50.80457316975991,49.58205223732077,44.55958549222797,0.4585638497315574,0.5414361502684425,220.32648005289784,239.40896734632415,0.5657202761186737,0.4342797238813264,227.0968700324447,198.9734145044035,0.5081453929619694,0.4918546070380304,223.73728588573815,220.1216406051146,0.6939444297807402,1.2018989994900238,0.9793137732875472,1.0614446156941435,0.4915382787725919,0.0272402909795363,-0.4316657702174268,0.0019593823713925,0.148844631785373,0.579798118666533,2.60192790899655,0.8354468649157172,1.6116422773945875,-3.484792821558333,-3.855651907831064,-0.2016845048646198,0.0008646759758933,0.3537360884831345,0.9387793833907958,1.92231023371444,7.336925471008501,1.4557952879722895,1.481123003108215,1.4850228784592827,2.0591425367363496,1.862184189487251,1.9878029300471656,4.104293357945941,1.136069445481581,19.0
107,100.58999091789038,605.6066666666667,167.6412315201509,,,,,,,223.2193521956169,223.9707684795524,0.2768153667179207,0.3685880035374174,581.0,83.0256,0.1429012048192771,110.75,0.7510156707794741,496.6,649.0,41.333333333333336,66.66666666666666,305.0,1461.0,16.666666666666668,273.4375,,,0.0698454011227449,0.1330796092721752,0.0324142414052682,0.2353392518001885,0.5248392409981963,0.2967860252315506,0.5654798689730034,-2.016807763873328,158.3712491794537,176.60769898207275,0.8967403464983132,87869.03302887139,1.1151500029020731,5.65080595711489,787.7763041295475,0.5933333333333334,0.6040268456375839,0.8444444444444444,0.2777777777777778,49.69108561341572,49.37119174270474,49.769110894711744,48.32214765100672,0.4943752226669388,0.5056247773330613,111.35442259934013,112.61423629460094,0.5088058982914699,0.49119410170853,125.97538687148185,123.7759315954556,0.5023738077529172,0.4976261922470826,118.88987662928234,118.32676674898862,0.6097304168831319,2.18285633431044,1.3500050259167264,1.3160149782129933,0.4317855276904652,0.2906550776075984,-0.5155713627000884,0.0094774349360346,0.6295758155518975,0.3887991300814287,1.3319199531835784,0.8154331196876388,0.8535685178257371,0.5673899480874898,-0.0322443258262463,-0.4713681005777063,0.0030876354866483,0.2231920159636376,0.7368885752111316,0.9654047826860944,6.84038760711928,0.8472936986171012,1.0247435990657765,1.1811645076650168,1.19811421426299,1.2963562959047308,1.945212432063294,2.527597714481534,0.9638424920661174,24.0
108,84.30013193568867,732.8820754716982,268.535999792016,33.32281037117197,266.3434000441129,,,,,385.7215126332169,386.63860541061007,0.3664109258221121,0.5263077451921013,710.0,235.7334,0.3320188732394366,317.25,0.6961913997453577,502.4,904.8,73.58490566037736,89.15094339622641,310.0,2152.0,30.285714285714285,492.1875,,0.0035766395853096,0.0220458373711402,0.0695204526468003,0.0220945733178483,0.1172375029210986,0.3171129722521292,0.1880442420031516,0.5929881728510368,-2.6661342870162725,273.39477975435216,264.8402604443772,1.0323006754925452,227469.98386493372,0.968710012247998,6.063894206770873,1026.2136477553422,0.6226415094339622,0.6303317535545023,0.8646616541353384,0.2692307692307692,49.92729375076648,50.14659961964989,49.77235121653202,47.39336492890995,0.4863983977986807,0.5136016022013195,190.6718197771838,195.93121363425087,0.5361782003271168,0.4638217996728832,193.92713554253493,180.3680394430034,0.5104973031865527,0.4895026968134473,192.30636593321032,188.3104751848703,0.6021143058644186,2.8288081470819195,1.104104624375592,1.510020464929958,-0.5576391046635019,-0.2248619982722803,-0.3565064085476805,0.0127824181633033,0.8274021222837604,0.4962961275025032,0.3427705235189067,0.5639047716588426,0.5346534235759814,0.8460118340927907,0.185835777391025,-0.5853379916760773,2.4714993876989796e-05,0.0068678815544855,1.0266117545341036,1.8495790401168812,7.4377800064295805,1.4547631711420808,1.096356369505133,1.4246713731478733,2.0738818061882576,1.7074130959400935,1.991726919408552,3.332323745430968,1.1300261042049962,12.0
109,73.04940663548604,837.879746835443,246.79807774687657,,,,,,,332.1220614386637,333.1763299610541,0.294550714083971,0.3963839234604288,821.0,229.803,0.2799062119366626,297.75,0.7430945016955919,644.4,1010.8,82.27848101265823,93.0379746835443,316.0,1740.0,31.6,437.5,,0.0055668725599965,0.0261528941264367,0.0572924075466731,0.0163658887423627,0.1053780629754691,0.4564809762119244,0.2481815796189466,0.543684386759037,-2.859587167589277,235.591242246308,258.13043353500336,0.912682937149141,191050.52069597412,1.0956707519082178,5.988118335629664,1131.3038648067657,0.6518987341772152,0.6624203821656051,0.8846153846153846,0.2571428571428571,49.502441106635,49.63708896296027,49.46175473707177,49.681528662420384,0.4926742540014246,0.5073257459985754,165.36751029612336,167.80840341416234,0.4968794258481611,0.5031205741518391,181.9553032515187,183.09447926034437,0.4949683602027745,0.5050316397972255,173.85934809910364,175.6178359279417,0.6447680239920371,2.012586252121848,0.966679975904593,1.3597602163966822,-1.0062318279211446,-1.27651470332177,-0.3046889965199409,0.0018720352905103,0.2916639315521012,0.673772016566031,0.5954553952212279,1.0431284634667617,0.7454007658561477,1.9139406439004596,0.8953515366699665,-1.0,0.0002321146882873,0.0298778203269518,0.7300082242414572,1.6956156086751526,7.177198469696089,1.3071989743001915,1.1497002095923183,1.3313332110689573,1.7185756209617316,1.7280491717312734,1.9422719892536504,4.412048432065821,1.1094350503560155,10.0
111,96.53714285463003,632.030303030303,210.80659476606044,,,,,,,276.4771495317433,277.181404546957,0.3335387460938771,0.4374428697582361,565.5,83.0256,0.1468180371352785,133.25,0.7624738432202947,509.0,712.4000000000001,54.54545454545454,73.73737373737373,304.0,1563.0,14.142857142857142,265.625,,,0.0639805893222039,0.0755030115582207,0.0133431003270926,0.1528267012075173,0.8473912232344294,0.4186479771969116,0.4940433246393128,-2.5835827353343164,195.996850773965,221.79751725742105,0.8836746830961527,136570.1059841992,1.1316381685806314,5.842325756401649,1003.9781448996756,0.6767676767676768,0.6836734693877551,0.9029850746268656,0.2666666666666666,49.91413676786261,50.553248835423226,49.168828529798056,47.44897959183674,0.4515131017456865,0.5484868982543137,131.6996137629345,145.15515098384506,0.5331474268241196,0.4668525731758803,161.9497713559285,151.54672619135815,0.4973523744061668,0.5026476255938331,147.60168818062965,148.38535654919144,0.6779473978814646,3.6536953292240018,1.3435491851393937,2.163123498401592,-1.8610733651651223,-2.0597895321367283,-0.275686191810562,0.015357536078563,1.361697079677339,0.4724779910602648,1.359517001217921,1.1570382705635538,0.6982967647473802,0.9538888594712454,0.9829334195715422,-0.8374297676345428,0.0049959381814033,0.2609885665510911,0.7703239778218482,0.8948646677014793,6.999718789269518,0.8298470733759047,1.2831344493569063,1.2226410415611502,1.274987654947394,1.2507936380201858,1.9602519422197835,3.451483280421262,0.924770499403589,18.0
112,79.76709327825523,772.91,306.11593675218603,51.2266751878693,289.6818594698364,,,,,400.6837435079664,401.6885368990604,0.3960563801117672,0.5184093148076314,735.5,212.7531,0.2892632222977566,284.5,0.7639839192679896,527.6,935.8000000000002,76.0,88.5,313.0,2561.0,28.571428571428573,320.3125,,0.0087435900598503,0.0445524466884241,0.0768415750710621,0.0166913927959252,0.1468290046152619,0.5797961148925254,0.3034308296590688,0.523340570702711,-2.566009443230149,284.0366883662283,327.371316720353,0.8676285119042914,292122.4526895509,1.1525670102809054,6.172535048326747,1509.2695190564025,0.655,0.6633165829145728,0.8939393939393939,0.2244897959183673,49.61528065591494,49.21424595092447,49.96311105584565,50.75376884422111,0.5130367841567225,0.4869632158432775,203.44870050549287,198.21145351121945,0.5190530245942901,0.4809469754057096,235.85576070456352,227.03312347252185,0.5164691424471792,0.4835308575528205,220.24907899342287,213.11008828387227,0.7225360450104922,4.129432578790571,1.4467217727760988,2.5211976960791205,-1.5326516842920892,-1.7983294832612111,-0.2398005893541638,0.047598484587377,2.4246428715562867,0.5656900612946747,1.0194531383079566,0.67079629696289,0.8219044968646716,-0.6870085537164661,-1.0794242945659698,-0.3517752369151716,6.298187590937393e-05,0.0377563876454474,0.9863074375738607,1.519252194795509,7.44630731475309,1.2564418874020924,1.3644032704183469,1.366967595900562,1.778143659703575,1.6330715525168455,1.948864196242945,2.983582078826941,1.0319205856195877,13.0
113,85.85213865327614,706.4017857142857,162.02280522765085,19.05202857522237,161.35923224014024,,,,,210.84644700645688,211.32035235211976,0.2293635272507412,0.2984794932154047,737.5,98.5929,0.1336852881355932,153.25,0.7684398173552771,580.6,798.4,53.57142857142857,75.44642857142857,325.0,1417.0,17.23076923076923,476.5625,,0.0038814016031064,0.0395817579463033,0.103899683640595,0.0247385602070863,0.1721014033970912,0.3809612941962631,0.2299909074824684,0.6037120069315548,-2.264329425726682,149.42605415091447,174.1474545868474,0.8580432858201533,81751.04861277572,1.1654423693137563,5.619463441983061,811.8352883346208,0.6071428571428571,0.6108597285067873,0.8592592592592593,0.2033898305084746,49.83553758651407,50.11986878760922,49.66066797569113,46.60633484162896,0.4744013811944595,0.5255986188055403,102.92010152199276,108.33139637908045,0.5313022470920692,0.468697752907931,126.93692029015142,119.22396657690028,0.5071738214509752,0.4928261785490251,115.55416269015484,113.90795768463956,0.6120503568303682,2.7596483155174347,1.2136234475492795,1.4545887282451575,-1.2258487177755717,-0.9450087682355804,-0.4126826127296959,0.0032341806113929,0.5396818687671531,0.6309856460916181,1.7152649801077984,0.942902842091932,1.1975604641610993,-0.2126662961851142,-0.4854284864947251,-0.351534529636836,0.0022040560595006,0.2480116038353652,0.7961391451632687,1.0959562446099933,7.349634721106797,1.030697192589993,1.5421346801588145,1.2956895051979118,1.5481048184065829,1.421027220914077,1.9118331581794747,3.106761242873578,0.9410651022123006,12.0
114,91.51500770257655,663.115523465704,148.20413242161823,21.813457129297685,148.7888019992449,,,,,210.09905358863608,210.48047909886188,0.223496701822097,0.3168362768685844,660.0,111.195,0.1684772727272727,140.0,0.7054012376076422,559.6,757.0,59.92779783393502,81.58844765342961,332.0,1369.0,21.307692307692307,312.5,,0.0049954864136518,0.0487851971232908,0.0923754482975571,0.0439146238287598,0.1900707556632597,0.5281186508145036,0.2566686124493632,0.4860055823696245,-2.381894046707337,148.83217407819862,148.0606020879477,1.005211190413724,69228.70529805895,0.9948158253077354,5.547256319557244,589.1721202467276,0.6462093862815884,0.6521739130434783,0.8722222222222222,0.2539682539682539,49.8902290983289,49.9612910091699,49.87575761048351,46.3768115942029,0.4843034420263832,0.5156965579736167,103.57526907344418,106.87949884204768,0.5437055844203439,0.4562944155796562,109.17454935690036,100.01429729475336,0.5138501066608663,0.4861498933391338,106.41174416134396,103.50383310798344,0.6126012265093282,3.540927646294642,1.2174402658550083,1.9450631406808443,-1.8703823347252675,-1.8353761340964616,-0.2945106628803197,0.010283111700845,1.1170515868034343,0.5715421369602773,0.741671426927105,0.6841099901049613,0.5240692532926154,0.6085393267328332,0.7166200045988125,-0.7157838781459157,5.80509959244898e-05,0.0252834328096287,0.9756184968279102,1.4797175501137425,7.549108129970098,1.167703868375952,1.1753222364301843,1.3905016172290714,1.8836232231533827,1.7051965396570772,1.9688969874782305,3.5540745106297176,1.0837850546708303,11.0
115,95.1927437189026,637.007434944238,178.9930790074718,66.37254354508082,166.41787002805484,,,,,224.8967009971533,225.31721661910507,0.2809905649266722,0.353051924765745,591.0,130.4688,0.2207593908629441,189.0,0.7958901940928758,507.0,731.6,55.762081784386616,76.95167286245353,355.0,1620.0,22.416666666666668,148.4375,,0.0045123809979581,0.020058835168312,0.0501112127618436,0.0056699751043038,0.0803524040324176,0.4002863643241434,0.2496357814038694,0.6236429807579449,-2.9935104883108776,159.32333178944745,197.2740344933449,0.8076244407868195,98741.37692625215,1.2381992786470908,5.701469289026221,977.058268821844,0.654275092936803,0.6578947368421053,0.8628571428571429,0.3387096774193548,50.127044851114846,50.23617616928687,49.95617038276573,53.00751879699248,0.4896622622794687,0.5103377377205314,111.48801181753228,113.81740913288635,0.5484269282357428,0.4515730717642572,146.0929679100334,132.56654710944014,0.5252285252347237,0.4747714747652763,129.94755105770224,123.54815262528668,0.664284866033274,1.946795774149606,1.2443528062657416,1.1844896964427514,0.4121274571360551,0.4067362712708444,-0.5307495581292493,0.0039933954712295,0.3907423548198153,0.49678492132406,1.4106770757843323,0.6304289368421088,1.134433791604462,-1.3084856991464964,-2.1477882474203724,-0.1427213120464669,0.0006953352552594,0.1352245301449188,0.9952699089996768,1.1525700827894008,7.409090371832738,0.9879645332592718,1.07854271699395,1.3456832184845169,1.5799010039873878,1.4329869618782822,1.951249056412536,2.69563568662162,0.9001630887609617,18.0
116,83.59480407435476,747.4688995215311,333.1547634116602,62.39738034730113,320.7286087440576,,,,,452.359753021692,453.4508265302984,0.4457105354148097,0.6051887286698563,673.0,305.4156,0.4538121842496285,445.0,0.7364818845758023,468.6,1014.4,88.99521531100478,96.17224880382776,302.0,2292.0,41.8,187.5,,0.0121214064764681,0.0555334796914397,0.099506877726548,0.0129511267176028,0.1801128906120587,0.5580868474644503,0.308325958806869,0.5524694950394959,-2.307528514326586,320.6381543742188,346.64036425548886,0.9249879340015196,349175.85488473205,1.0810951832355007,6.2500143150615655,1499.0049124464338,0.6602870813397129,0.6666666666666666,0.8985507246376812,0.2777777777777778,49.93003923290077,49.950801036452766,49.89686975343408,50.72463768115942,0.5015327431605701,0.4984672568394299,227.07279260205664,226.3777677242329,0.4361572926525545,0.5638427073474456,228.9289422119998,260.2903792860444,0.4663013782479396,0.5336986217520605,228.00275625790337,243.92414319689595,0.6921403531496294,1.8544138889191788,0.889933548407313,1.4209174098315656,-1.4097922166099135,-1.9007093027905797,-0.2136648595024654,0.0015406818721505,0.2389846919176697,0.5200058380599122,0.7693138075052632,0.6140682870643523,0.9046627418125438,-0.9818913468133434,-1.9905442510739957,-0.1222679849065319,0.0001863033815331,0.0362926994108775,1.0271496758381158,1.992430164690206,7.531498426328904,1.5626008983081627,1.3776372908231818,1.3910380788007386,1.798352456761896,1.830452526860601,1.9907520880033251,3.8284096865937,1.1431968090646285,9.0
117,84.73595244511621,722.5,235.0537431358245,,,,,,,295.84195927025775,296.64355220075095,0.3253339005340132,0.4094698398204259,712.5,195.7032,0.2746711578947368,273.5,0.7945246972931856,532.0,871.0,71.50537634408603,80.10752688172043,306.0,1700.0,31.0,492.1875,,,0.051914307672211,0.0953175375221594,0.0269460213954082,0.1741778665897787,0.5446459174434926,0.2980534133793182,0.5472425365425446,-2.350541460885552,209.7586673564166,258.7924140547167,0.8105286552644745,170538.0644782237,1.2337626726765154,5.938791439611786,1277.1536817302188,0.5806451612903226,0.5869565217391304,0.8518518518518519,0.2244897959183673,49.79388436652055,49.78885789809587,49.88151137558076,48.91304347826087,0.5069734065496451,0.493026593450355,149.35312510376497,147.28445009277266,0.4908214366465453,0.5091785633534546,181.3064702342623,184.6658534311649,0.4972254653255837,0.5027745346744162,166.09995804796026,167.02422977309448,0.7123314619785364,3.713965600798327,1.2681044431203272,2.3551856727629845,-2.5544660616265773,-3.10206871285049,-0.2072990580717855,0.0163160278749355,1.4227132100722075,0.7474839205685333,0.1375027538216249,0.8192521662046626,0.8162352974793458,0.9091857288366044,-0.0886004968153402,-0.5219404240385647,8.529850255436941e-05,0.0033420895563699,0.89573841995507,1.6279324950702647,7.283729913235307,1.3404615843003589,1.5226502002971132,1.3745810931105324,2.1324457017159317,1.7001348721994891,1.9062116047008304,3.78124888759322,1.0538609090796172,15.0
118,95.69240523521162,633.9083665338645,141.9933363567499,47.57597387313404,139.71692532939005,,,,,191.9843639466506,192.3690625044353,0.2239966276721548,0.3028582269648818,619.0,114.1602,0.1844268174474959,165.5,0.7396088589600327,540.0,734.0,52.589641434262944,78.08764940239044,301.0,1211.0,17.928571428571427,273.4375,,0.0011134738376662,0.0188274185821062,0.0589798117995454,0.0281736453572607,0.1070943495765787,0.3192180172784373,0.1758021656282022,0.5507275783711769,-2.830560066519978,136.025468587385,148.19694540207644,0.9178695837375817,63329.980677688094,1.0894793963299032,5.508579465483588,645.8300744583595,0.6055776892430279,0.6104417670682731,0.8486842105263158,0.1666666666666666,50.162887462503626,50.26278518938309,50.092585388448406,50.60240963855421,0.5010405883163044,0.4989594116836953,96.28478091653206,96.08460336607558,0.4913585267135088,0.5086414732864915,103.88156903546016,105.69273504473684,0.4957857046980706,0.504214295301929,100.15522807475816,101.00298323627132,0.664039916914003,2.6486182018149425,1.203633552271013,1.710896216447975,-1.2817595595451312,-1.7231446103877488,-0.308480261960986,0.0048478050735783,0.6161669615772791,0.5258229672700098,0.6027534741621805,0.6012040974543765,0.7175869943301163,0.4229338528572537,-0.2650900655899852,-0.3069145979830137,0.0001886777890455,0.0249512868399579,0.9419643017534144,1.4782730553332122,7.440530755085654,1.2016253848499967,1.1091628199027852,1.391278624849585,1.844227636754901,1.6282566295754066,1.970909954333549,3.383931078050586,0.984533267619418,14.0
119,108.2774621731824,560.2206896551725,149.68800165795915,57.967542401299006,145.40550123286215,,,,,187.37337592870665,187.69804887100128,0.2671947045549054,0.3344635058802253,525.0,78.5778,0.149672,115.0,0.7988755121480743,468.6,622.2,42.41379310344828,66.20689655172414,308.0,1606.0,18.125,226.5625,,0.0115553550625418,0.0584697518960068,0.0819581487922919,0.026533811263259,0.1785170670140997,0.7134098653715065,0.3275303189436156,0.4591053962690227,-2.501546542588192,132.72256317216898,164.5179952578094,0.8067358404421651,68597.46104761455,1.2395631257090407,5.543278151712035,815.7217617486214,0.5862068965517241,0.5902777777777778,0.8529411764705882,0.1891891891891892,49.83104815127689,50.06122220479011,49.48577354698374,50.34722222222222,0.461541971675183,0.5384580283248169,90.1677352832548,97.39159750147282,0.497982441730273,0.5020175582697269,116.09684666333644,116.56625994891634,0.4836160664312461,0.5163839335687538,103.94397118467566,107.40767249681753,0.5227277180599262,2.831145112608219,1.320114515179677,1.2727422853579815,-0.3388946588563595,0.153495441186803,-0.5167325332815785,0.0061039283407203,0.7103155369452181,0.5508084480166954,2.6863128177542297,0.8868166508789264,1.5131553300648437,-1.691545687124094,-1.7611957033132752,-0.2668407509928275,0.004553743104725,0.5483550548577781,0.8350612457801465,0.8951081126702867,7.452987517643154,0.7761182008914628,1.0811983967050909,1.223637158501338,1.2790707161689443,1.2812084028615225,1.931749811569165,2.3477270482877906,0.8179909090014934,18.0
120,103.47391589004629,589.8145695364238,211.14322276104528,52.21500744324415,209.1258221877679,,,,,253.97369523979083,254.39651974433292,0.3579823789822577,0.4305992228021874,503.0,107.4885,0.2136948310139164,224.5,0.8313586277574656,442.2,764.2,54.3046357615894,76.15894039735099,307.0,1503.0,21.571428571428573,218.75,,0.0069808448104635,0.0531486397936271,0.0464916463908323,0.0118515749816456,0.1184727059765686,1.143186871612005,0.4486150574136357,0.3924249556689229,-3.068482630036356,179.88550422147526,238.84001208591587,0.7531631850561396,134974.9343868355,1.3277335109329085,5.837223234988626,1268.4635511923657,0.6456953642384106,0.6488294314381271,0.8505154639175257,0.2686567164179104,50.071000315556944,50.372385190555946,49.8046377245559,48.82943143812709,0.4757239318652604,0.5242760681347395,124.07202209469574,130.24959372937278,0.4935580940286763,0.5064419059713235,167.79392137523257,169.9698541586793,0.4871031642831461,0.5128968357168538,147.5612867881417,151.41781267306266,0.8596249898405874,1.0349357201320173,1.617655818027671,1.2442125158327713,0.6907628955262055,-0.0434764363261446,-0.860837194939279,0.0078797580286042,0.2609488558630534,0.4928821555475712,1.9049122815856243,0.7294273658509807,1.1564862062594652,-0.8186713760661535,-1.0931995981116496,-0.2758118079573688,0.0024394859114056,0.2759315441548058,0.9359320741573978,0.831400246453663,7.661110492500224,0.9937873035176548,1.1112522705566712,1.278266940868045,1.392001535337261,1.279148611285679,1.9090440040318917,3.1452100899102278,0.9002230344295615,11.0
121,78.1550562011505,791.2865168539325,310.31533431307105,,,,,,,446.23210372571833,447.4958600348508,0.3921655780852306,0.5639323989746314,732.0,242.4051,0.3311545081967212,331.75,0.6954123912693873,548.2,965.6,84.8314606741573,97.75280898876404,324.0,2448.0,29.666666666666668,320.3125,,0.0037302030939642,0.0685840072626066,0.1037129408286944,0.0196532526103745,0.1956804037956398,0.6612868819898641,0.3504899107538269,0.5300118909045577,-2.266128380513174,316.4273571835491,305.3345285727217,1.0363300824924075,303528.7376445652,0.964943522236629,6.189169925668344,1178.5223018456911,0.6797752808988764,0.6892655367231638,0.918032786885246,0.2,49.782989955535086,49.67165525439024,50.06420136425555,49.15254237288136,0.5011811817730664,0.4988188182269339,224.01313881921385,223.48456195410495,0.4975189878945823,0.5024810121054176,215.3677888154369,216.4391135619336,0.4994154098944796,0.5005845901055204,219.7329866256851,219.99004444666784,0.5908384615531223,2.168161937411261,0.9888752152180276,1.1595255270322378,-0.5647126124706645,-0.2482940960574116,-0.4212926355408845,0.0017246932699586,0.3145595570346012,0.5606284052020158,2.3659470477819013,0.6457447879173004,1.726053645877066,-3.57637129308009,-4.54127472664829,-0.0433926304595168,0.0019918151893984,0.3853601880216343,0.9224089325439152,1.8309801823813363,7.287476268020739,1.3667774934404655,1.1445725230974846,1.4072422557051358,1.9446759081751877,1.7707893971539952,1.9854804195840048,3.146980428116536,1.0079640581078289,14.0
124,81.64339570505072,757.185628742515,275.00356235928126,,,,,,,390.03437445052464,391.1907891967696,0.3631917351838669,0.5151106408322469,711.0,226.8378,0.3190405063291139,307.0,0.7050751943253789,533.2,933.6,90.41916167664672,95.80838323353294,307.0,1845.0,27.83333333333333,460.9375,,0.0008792319493247,0.0353092512611475,0.0869299888820991,0.024773398075799,0.1478918701683705,0.4061803264352947,0.2387504547812467,0.5877942363101629,-2.4426522097860404,276.61365977875295,271.51053750973347,1.018795300969991,235944.67752628744,0.981551445170491,6.079780294874347,1066.0062418867826,0.6227544910179641,0.6325301204819277,0.9047619047619048,0.1428571428571428,50.71564789721972,50.91002388306459,50.48634834955893,46.98795180722892,0.4832225618995503,0.5167774381004496,192.2974652758459,198.86196674623787,0.5244105017514025,0.4755894982485976,196.6175950252447,187.2418043742189,0.5034318505117705,0.4965681494882293,194.46952695091625,193.13929574725992,0.5215502274608865,2.055686241493616,0.8251601897850129,1.149137013820032,-1.114893009452901,-1.1384597953273687,-0.3423996729191392,0.0009599405601343,0.2511570494473283,0.1494435722832738,0.838880572547455,0.2639735620103344,0.264351581212489,0.1399889395015283,-0.0487417865897836,-0.4995493766162606,1.05315734380287e-05,0.0275054378395188,0.8873384442622534,2.214846178686039,7.204063573911179,1.6169276956336431,1.073300014538442,1.4618064671690354,1.9913318145673504,1.8840191385342837,2.016408704584564,3.551140785787151,1.193772550280236,17.0
127,89.94871367853705,678.1263736263736,176.21217267211276,,,,,,,256.4340135686316,257.1450757721432,0.2598515255051857,0.3781507747550292,651.0,121.5732,0.1867483870967742,163.75,0.68716380568973,554.2,785.2,59.34065934065934,78.57142857142857,310.0,1372.0,22.75,320.3125,,,0.0530988802946697,0.094161124002279,0.0536575791969442,0.2009175834938931,0.5639151067630054,0.2642818979369404,0.4686554674053257,-2.362747878948867,181.829026827211,171.35091838513827,1.0611499987325514,97881.25373501243,0.942373840827791,5.697669633439975,645.9064923518883,0.6593406593406593,0.6685082872928177,0.8842975206611571,0.325,50.11129198365504,50.200602775013536,50.08368290464982,48.61878453038674,0.5026869242012721,0.4973130757987278,128.9176739887385,128.226741447415,0.5276214923294494,0.4723785076705505,124.4651237999506,117.7691393740028,0.5144150895165978,0.4855849104834022,126.71095791052107,123.1090317789794,0.5960943310054488,3.1514766120993203,1.2545959117856071,1.8232562740526796,-1.513818307270192,-1.779893598404825,-0.319557486137184,0.0071301838686301,0.8899106370284617,0.3778543338595788,2.354582968937484,0.6068116192793926,1.319582491498914,-3.1102264423868693,-3.554997838947481,-0.1972836032441182,0.0007015990777345,0.2892620649587376,0.8799083833939809,1.4172904614888546,7.13125988738012,1.040235184494217,1.0132806966798007,1.3214564141351544,1.7829079814648878,1.6132293596949112,1.9713125933229187,3.631419578108785,1.0725420914569566,11.0
130,83.02512611419397,730.6547085201794,173.047673644739,28.7190801408192,168.80552746911349,,,,,202.4513733185294,202.9085021837392,0.2368391958976334,0.2770821442163306,740.0,179.3946,0.2424251351351351,239.0,0.8547616684845714,583.4000000000001,871.6,61.88340807174888,81.16591928251121,309.0,1404.0,24.77777777777778,578.125,,0.0054034435959092,0.0591722743312529,0.0774870040419861,0.0192253573604792,0.1612880793296275,0.7636412720149893,0.3668732033836264,0.4804261069017038,-2.557645046465163,143.47797785452735,195.6590436841664,0.7333061388469733,88193.18894966945,1.363686933771436,5.652405156365799,1067.2707253852495,0.5067264573991032,0.5113122171945702,0.7787610619469026,0.1166666666666666,49.85089800067773,50.08092743135579,49.57864642311864,44.34389140271493,0.4480689999885702,0.5519310000114298,96.04141028060648,106.59294798947056,0.5228582497561303,0.4771417502438696,141.47897635726534,135.1523607796139,0.4967048239677421,0.5032951760322582,120.91371559874302,121.71322275206768,0.880793570947685,2.66576104071073,1.499081989555847,2.0291135079246536,-0.75271209171399,-1.3835909249571974,-0.3011706562312529,0.0099183902998029,0.818684637466065,0.4889569911438393,1.9690131595263176,0.7133652216941535,0.9751088110323202,-1.5284472044470458,-1.2393956064818898,-0.3670686439692796,0.0001984433756205,0.1663176787555885,0.8743327571926707,1.2223219429941323,7.4644893617649055,1.0533040645819716,1.2604407982876484,1.428263820799469,1.87355645205266,1.7465531324697807,1.8944342039229736,2.672026276526045,0.9095219614256858,8.0
132,89.18914369066523,694.3230769230769,284.10376462787406,,,,,,,386.8631751395702,388.3714181115904,0.4091809333010971,0.5571803501821823,616.0,199.4097,0.3237170454545454,303.0,0.7343778960749541,486.4,895.2,88.46153846153845,95.3846153846154,306.0,1810.0,26.0,218.75,,,0.0412153367562874,0.1080119968113084,0.0142825982577346,0.1635099318253305,0.3815811018500892,0.2520662585824798,0.6605837064790185,-2.22551297644083,274.6200633657415,294.6580745109753,0.9319957168033164,254214.59591961635,1.0729663044267346,6.112170592235512,1264.6327411101545,0.6846153846153846,0.6976744186046512,0.9,0.2666666666666666,49.99492591840877,49.61000680041114,50.28995631165891,51.93798449612403,0.5206607169735522,0.4793392830264477,198.1571149050672,190.13136905834344,0.5100418345929764,0.4899581654070236,210.43658538097085,206.25184704073047,0.514977964467341,0.485022035532659,204.3890880823908,198.35544094845605,0.6412798614012188,2.012594853849928,0.9431453894704932,1.1839986734485963,-0.7103647612277832,-0.5405090646214294,-0.3803269900460241,0.0012795174883351,0.25284732533981,0.3320624028001306,2.737825368354786,1.242712899565999,1.700975086977524,-2.9374155636330457,-3.911542308662542,-0.3326181820402578,0.0070809607900348,0.7225974943151299,0.8217576141048504,1.9778617488619157,6.77621396687461,1.4818652650229998,1.319283723245616,1.4335925402394674,1.835405052289505,1.8745397021011945,2.0316110155265306,3.387002568814124,1.0803642789274546,17.0
133,76.9518681251638,824.7938931297709,640.7011509943588,,,,,,,871.6073657329888,874.9468399900572,0.7768015213632924,1.0567577827541603,657.0,298.0026,0.4535808219178082,433.5,0.7350800098569078,456.0,1001.0,89.31297709923665,94.65648854961832,306.0,5344.0,32.75,156.25,,,0.0448326425602108,0.0161619298271368,0.0008018943533047,0.0617964667406523,2.7739659211324037,0.7254887686113931,0.2615348527119721,-4.125096813023099,618.6808437347106,663.7184804029371,0.9321434644385906,1290031.9068975232,1.072796235933787,6.817570561980546,2848.138749983856,0.6412213740458015,0.6538461538461539,0.9294117647058824,0.1538461538461538,50.744602776588586,50.37241218909363,50.45700683105366,50.0,0.5077117141534989,0.4922882858465011,440.8504685932802,434.1026787050671,0.5916814016334615,0.4083185983665386,510.5377609022627,424.11486170763686,0.5526403820223137,0.4473596179776863,476.9685214801972,429.1378284305653,0.7136275763924608,1.2665922967332306,0.8417798867945198,0.9742644467839876,-0.5589422360090124,-0.6298012917220159,-0.3954007849793739,0.0001439074585929,0.0670939092188077,1.0612583011222974,2.1728229390004845,1.8677413788781572,0.7813299093779152,2.5187990646254628,0.8748990154162182,-1.0,0.0078647830762157,0.4975254240480397,0.9999224611733516,1.3597350880475358,6.869226245779228,1.080520491893557,0.978650932028259,1.1231187049327804,1.2017250290896782,1.3629801678882674,2.0440733963679127,2.147554003251636,1.1274952903227973,14.0
134,87.21170120940792,705.4467005076142,338.2385998980551,,,,,,,472.3949348689039,473.6046171774789,0.479467264719887,0.669639441971995,637.0,185.325,0.2909340659340659,270.0,0.7160081002814329,517.2,874.6000000000001,75.63451776649747,90.86294416243656,301.0,4283.0,32.833333333333336,320.3125,,0.0063768250981291,0.0630363284889398,0.030272016534523,0.0008974958734637,0.1005826659950558,2.0823300098641084,0.626711649222327,0.300966535685295,-3.4975315399142497,334.8890364074541,342.55543721287296,0.9776199704556005,360397.4154233949,1.022892361265871,6.263751777753327,1401.5893601405537,0.6142131979695431,0.6185567010309279,0.8666666666666667,0.1698113207547169,49.96416187210631,50.75223352075477,47.98531150250603,47.93814432989691,0.4285846009330807,0.5714153990669192,219.23972361380228,253.14941873353808,0.5682801445617123,0.4317198554382876,258.2332174674874,225.0773932683864,0.5000130500676248,0.4999869499323751,239.53126206600575,239.5250103492536,0.7358751063239312,1.9424039741805923,0.9904532368443753,1.110929395039361,-0.2341598159686819,0.210167989884054,-0.4379757456242804,0.0022416105577011,0.242638133695263,0.6949212239476213,1.5705975701421266,0.6949212239476213,0.9024451861129056,-1.8655091162582265,-1.25596450996915,-0.3678694236445908,0.001511339330811,0.1067276760959966,1.107034686349123,1.4767383512730428,7.393526184894681,1.1959079395387375,0.7236818569398064,1.28656803379691,1.5140871421413356,1.184313633012671,1.979374536040688,2.077379980688555,1.122027932813375,21.0
135,104.41951519674144,575.421875,59.14667313605075,,,,,,,55.569022218917006,55.71506457909415,0.1027883639912903,0.0965709241048874,573.5,57.0801,0.0995293809938971,79.0,1.0643821102887037,521.2,623.8,6.770833333333333,32.8125,311.0,861.0,12.8,304.6875,,,0.0062129865487342,0.0087240564141076,0.0020519223391917,0.0169889653020336,0.7121671678655491,0.3657071774695168,0.5135131103636599,-4.741670964122212,39.396499978123884,73.95659880278171,0.5326975633801331,9153.442194483365,1.8772377963486195,4.668554553202838,555.3364902478916,0.4635416666666667,0.4598930481283422,0.6511627906976745,0.0888888888888888,50.000000000000014,49.337056927591824,50.65307435924632,48.66310160427808,0.6460972681894637,0.3539027318105367,31.666975991102348,23.43686928975931,0.4839369632561486,0.516063036743851,51.44833537360475,53.12859205513264,0.5197812438781315,0.4802187561218686,42.71843033829756,41.06052931871413,0.7400247477203376,3.3056606160247943,1.4585080801541237,1.253889070539469,-1.1885210184601451,0.1388655837851296,-0.5618995817727709,0.0031696911073366,0.6707623405557048,1.1252254127982972,0.6643701971074698,0.4807059761927688,0.7930403142445623,0.9484457550727524,1.8532831490108403,-0.0298790652987858,0.0011600171391179,0.0841506383593883,0.8478492258188415,0.9818015428306656,6.731766992762172,0.7658608588882125,1.3236562479531218,1.2651972198398376,1.65426650944382,1.359962918340902,1.709254749570003,2.03869743771289,0.5925751953688403,19.0
137,92.07303924889732,657.2155688622754,142.35316339879606,,,,,,,197.3574825123549,197.9545789671548,0.2166004126244721,0.3002933768809008,630.0,57.8214,0.09178,77.0,0.7212960035091882,573.0,686.8,33.532934131736525,63.47305389221557,361.0,1342.0,13.916666666666666,359.375,,,0.0427851295210796,0.0577226135556519,0.0202195735893921,0.1207273166661237,0.7412195478610699,0.3543947691590264,0.4781238840525724,-2.8521062662046206,139.97502515460306,145.51704168067795,0.9619150000435256,63990.320294090685,1.039592895375112,5.513084393933164,605.1139307489475,0.5449101796407185,0.5542168674698795,0.8260869565217391,0.119047619047619,50.06781193490054,50.26602813122935,49.8396313884023,50.60240963855421,0.477996491019683,0.522003508980317,96.77496545798373,101.1317172919764,0.4848543185166912,0.5151456814833085,101.32567163625431,104.44289198867544,0.481558478919477,0.518441521080523,99.07644945175412,102.80063698582408,0.6829479239268628,3.1492075995952056,1.4206277820659456,1.8982550244874892,-1.516849735286801,-1.8239447370691624,-0.3483341515869143,0.0059416676919404,0.8473804984661968,0.753923601988295,1.5132588594460434,1.1809917127206022,0.9968003796208794,0.719675694163207,1.026328774614251,-0.6217183246276513,0.0023228405241676,0.2120050423703627,0.7596799318058785,0.8712549789642781,6.7870052476133065,0.7275578650828589,1.1903801164462195,1.23529140511887,1.3648889923009138,1.2918146534013588,1.884439204853814,2.684058299379624,0.9284897613290723,21.0
138,83.65188396907816,723.7733333333333,155.85543668046083,69.55555555555554,148.0060911721675,,,,,189.7006923513233,190.12554261086265,0.2153373570184876,0.2620995878331936,717.0,99.3342,0.1385414225941422,136.0,0.8215860192635381,640.8,800.2,51.55555555555556,70.66666666666667,317.0,1476.0,18.75,398.4375,,0.0035952347614766,0.0205591723476564,0.0334077944842007,0.0182237089575128,0.0757859105508466,0.6154004676177981,0.2712796111866039,0.4408180127595961,-3.3989660384350686,134.43906045691287,175.2712597201964,0.7670342569085873,74026.30111298968,1.3037227359705483,5.576356159406793,914.0205050376762,0.5644444444444444,0.5675675675675675,0.7698412698412699,0.1666666666666666,50.02810778398232,49.75278454648681,50.26165700018159,55.4054054054054,0.5497358063442453,0.4502641936557549,99.67873281590587,90.21093865443812,0.4236474173409742,0.5763525826590258,114.0809133763553,133.06223989968402,0.4703521353179902,0.5296478646820096,107.12213723728684,113.67403648159032,0.699026504614264,1.8893048796968603,1.2698173838681217,1.298944640938089,0.3139451047390666,0.0594847217151555,-0.4845830827078365,0.0045025043350732,0.3953051342114544,0.3410978061631577,2.9676625132968875,0.67983468354403,0.8598654061490234,-2.0766998323574253,-0.462337082932315,-0.4393358504215526,0.0005258719361293,0.369822365752857,0.905226304555346,1.1582560374289526,7.33142863560379,0.94568335553235,1.2657541190624515,1.348905479039606,1.7124139771911882,1.3819197466528164,1.9623820922264332,2.8720072223827438,0.9376537429460444,12.0
139,90.14126659736624,672.2385964912281,160.86970687352084,15.474739248711494,164.1021143650362,,,,,191.60837958388083,191.94554996066952,0.2393044786675232,0.2850303159979019,654.0,137.8818,0.2108284403669724,188.0,0.8395755301667094,550.0,800.0,50.175438596491226,76.14035087719299,301.0,1429.0,23.75,343.75,,0.0062483027093436,0.031606142739133,0.0633517304653925,0.0124989291323001,0.1137051050461693,0.4988994382150094,0.2779659077426605,0.5571581895084562,-2.759053056638693,135.72599999577065,182.38788292674752,0.744161277700023,77769.42806938474,1.3437947256415934,5.597779015047511,980.3675003915988,0.6070175438596491,0.6057347670250897,0.8579881656804734,0.2112676056338028,49.742539330317776,49.62983083907184,49.8837248510524,48.028673835125446,0.5142009786211588,0.4857990213788413,97.32667841941118,94.60057373629796,0.4880906193304105,0.5119093806695895,127.42252675257431,130.49459572905866,0.4973965896919092,0.5026034103080909,113.37764915574408,113.96953116014647,0.7085904510833867,3.803739404654389,1.4167186443344368,2.008314326759425,-1.9458774746266183,-1.4809062730641305,-0.3444699755979364,0.0085649460200573,1.1591054728366033,0.786961424743237,0.8467958093883643,0.9633676049253728,1.210359329437419,-0.630475448179797,-1.6232292636174692,-0.2083219806077605,0.0003026551535007,0.0513639749053241,0.8686010437605831,1.1251099559002111,7.652857933522414,0.9205259413803044,1.3460760154272358,1.2749674133825828,1.8035235370470808,1.5972674390158104,1.8861414149179017,3.4782052620984723,0.944242096837612,17.0
140,93.8893603172067,644.925,140.89854996382877,,,,,,,189.27985714705105,189.75568954482964,0.2184727680952495,0.293491269755477,620.5,106.0059,0.1708394842868654,152.0,0.7443927319448739,560.0,736.2,45.0,74.0,348.0,1538.0,16.666666666666668,304.6875,,0.0027212185783331,0.0276230242705645,0.0400783029032442,0.008174012608745,0.0785965583608871,0.6892263960689935,0.3514533568216761,0.5099244004962553,-3.2169201658354325,134.1775348458783,147.79132569423473,0.9078850481622854,62298.64862509114,1.1014610297021312,5.501448736058661,651.1455431208593,0.65,0.6582914572864321,0.8931297709923665,0.2708333333333333,49.65025310630466,49.35158578935904,50.18789806552686,47.73869346733669,0.5401778738786451,0.4598221261213547,98.61698943924723,90.98677615095193,0.4412162251259814,0.5587837748740184,98.16907121401164,110.47673695144005,0.4859305748636896,0.5140694251363106,98.3932852106339,101.20203269149565,0.7513486317187101,1.461342275642035,0.9987136779185468,1.17948429937011,-0.5312944370468511,-0.6440212098225304,-0.3762982331622875,0.0006879398091354,0.1218206874319502,0.9309435930856124,0.6051660241911647,0.8447293923443895,0.7616814079151377,0.3926572656958882,0.5950373171744867,-0.6372317365969936,0.0007231696028069,0.02794379988176,0.8507383209846475,1.0975187948467384,7.123660689688187,0.8779091935357437,0.7533864906460922,0.9842931451512036,1.2674627666322422,1.364367200654108,1.9542005183767588,2.6159793675892247,0.7643856189774725,9.0
141,98.99238330493246,613.8131487889274,156.04918106110767,20.547070207111076,150.86599375561505,,,,,208.7406601370333,209.10400287440484,0.2542291271684186,0.3400719918575957,598.0,105.2646,0.1760277591973243,140.0,0.7475744349886845,517.0,681.4,57.09342560553633,73.70242214532871,304.0,1162.0,17.0,312.5,,0.0070071474703418,0.0305704753627275,0.0918531238847361,0.0146199501058639,0.1440506968236695,0.3328191145800286,0.2122202532636719,0.6376444259563164,-2.3875644571782204,147.85885840574298,164.34085423368543,0.899708469298171,76338.34873223845,1.1114711421801582,5.589712871492698,730.640467847909,0.6228373702422145,0.627177700348432,0.8888888888888888,0.1866666666666666,49.99360368427786,49.95199389153901,49.97649407936616,51.56794425087108,0.501371949968312,0.4986280500316877,104.69534365280244,104.40846315170216,0.4789995273122088,0.5210004726877913,113.73996296395116,118.62182427874082,0.4890079114985259,0.5109920885014738,109.31123948986074,111.74136291659596,0.692549784278841,1.8820841020895105,1.2423040316431488,1.417992483994179,0.1711136590003912,-0.4030355602460738,-0.4066521776811255,0.0058544212280555,0.4401618200437162,0.3876558444055917,1.1823312917966438,0.6103069610678342,0.782154573635691,0.0656878653072006,-0.4569135826910089,-0.3546535867229556,0.0007732425713709,0.1089839630851242,0.9566767595467676,1.167754291465456,7.534238777669982,1.0718460271068055,1.3358837644490154,1.354756508909367,1.6723052612953722,1.573169824506327,1.9396523549592977,4.168346726640775,0.9617559626471388,14.0
142,87.65679986040219,692.8577075098814,147.77434638758916,18.489255585164045,145.43051882052453,,,,,212.7904364422185,213.213330351434,0.2132823879793264,0.3071199672541476,718.0,142.3296,0.1982306406685236,183.0,0.6944595295649768,564.4,806.4000000000001,79.44664031620553,92.88537549407114,323.0,1131.0,21.08333333333333,476.5625,,0.0034479631311668,0.0197462418389022,0.0766371663172922,0.0481030039968092,0.1479343752841705,0.2576588199666611,0.1334797392490504,0.5180483992992033,-2.568673119942383,150.76459173086653,145.21184965843628,1.0382389046451186,68778.27607150508,0.963169455051206,5.544421395986671,559.4544724099749,0.6600790513833992,0.6653386454183267,0.9041916167664672,0.2424242424242424,49.85648148148148,49.65690206535741,50.007812831994535,49.40239043824701,0.508114717476935,0.4918852825230652,107.46855372545328,105.73832619016628,0.4460740795173156,0.5539259204826843,96.9852191201383,108.07566124453308,0.4782580011276231,0.5217419988723767,102.3611810395471,106.91338124608414,0.639915935260639,2.371473739693156,0.8946364000552958,1.5681710628267398,-1.5903760581572095,-1.884391391573426,-0.2159847686702225,0.0046499826145226,0.4661425702049666,0.5017696846186078,0.5092984650229928,0.5885078613358279,0.6485017616295994,0.42514492107827,-0.3347830879661901,-0.3822028645009503,3.208916987858239e-05,0.0137926041566931,1.0036403741873396,1.561647248597752,7.509576825639694,1.6027940423743086,1.1496587611922582,1.350243143233669,1.8709541719886085,1.6736800840456585,2.009580268782868,6.187090630313255,1.1043667000565252,18.0
143,111.28661765009238,542.0734693877552,113.3081298276746,,,,,,,142.36935339772126,142.66149337965885,0.2090272559467824,0.2626384824893207,521.0,74.13,0.1422840690978886,103.0,0.7958744429437593,459.6,596.6,28.163265306122447,55.51020408163265,335.0,1206.0,12.25,203.125,,0.0036031506041456,0.0583497970681737,0.0716416936970371,0.0166489522614152,0.1502435936307718,0.814467024117646,0.3883679540544681,0.4768369283890984,-2.6360780602902336,100.87690938295653,124.81028766344376,0.8082419428034281,39554.147153997816,1.2372532864744057,5.304162134879528,617.6877543896471,0.4897959183673469,0.4917355371900826,0.7394957983193278,0.109090909090909,50.256381674283816,50.49633863551162,49.941682687455966,53.30578512396694,0.4677471730678553,0.5322528269321447,68.99202256025498,73.59567273466212,0.5001122874398474,0.4998877125601524,88.26411005061216,88.24429037396702,0.4873237198967218,0.5126762801032783,79.21632502199691,81.25077793126813,0.7331325105846963,2.218193002176061,2.152011143869373,1.2905941294957126,0.7818081099808571,0.931085783599776,-0.8883417779826215,0.0111549200477839,0.6860428933351738,0.5315324634060634,1.9167866369354976,0.8658013863577405,1.2023547009087558,-0.8651577145991283,-1.235806138984242,-0.3244179565603155,0.0012960938385733,0.2573350681311777,0.8000537728658226,0.7668616498775552,7.184890732860833,0.7714363531666033,1.360283933019861,1.28657528170055,1.4565723123187966,1.323752473449337,1.8580535903978987,2.4845655399169075,0.907044335886008,9.0
144,99.7760690880053,602.8980392156863,93.57336060566504,30.52212649766305,87.77421082926394,,,,,79.89917366754118,80.04823218858742,0.15520594614538,0.1325251841447063,592.0,80.0604,0.1352371621621621,107.0,1.1711430332811936,528.8,658.6,27.450980392156865,58.03921568627452,311.0,924.0,18.214285714285715,351.5625,,0.0018413175108196,0.0416516690080304,0.0343855244091983,0.0017967627356869,0.0796752736637353,1.211314055076279,0.5227678185809407,0.43157083531737,-3.3701196052230045,56.60264780254544,119.04108940604893,0.4754883215951924,21168.179658081357,2.1031010743758105,5.03265362275487,1001.4217720989136,0.3843137254901961,0.3824701195219123,0.5625,0.1016949152542373,51.29898340429229,51.0075311840605,51.56983282738196,54.581673306772906,0.5994628447029149,0.4005371552970851,43.82934927314698,35.82657502833434,0.4188191676326151,0.581180832367385,77.03891671937124,90.75123292652674,0.4521355103595402,0.5478644896404598,62.6737845793667,68.99032452433305,1.1695940170873955,1.8674945596177164,1.5366263673565184,1.4433861047680994,-0.2916939351520149,0.1703481382028231,-0.5499279969027089,0.0007291644521563,0.19515561338261,0.4826409440104933,0.7962299599691416,0.7782048641832069,0.5252109648273894,0.9880560070247756,0.8675959497376147,-0.8177397386122252,0.0007719529151254,0.0611734789611794,0.8928804810230111,1.1612833956308852,7.278398828896944,0.86642644569268,1.2505328088667478,1.4286785215854998,1.858456938753571,1.587587206408107,1.7445553471680768,2.5139912591349245,0.7837601408685154,8.0
145,94.5838036287942,636.9278846153846,90.3274215475358,,,,,,,125.6289683200472,125.93340317252512,0.1418173449920173,0.1972420604507047,630.5,60.0453,0.0952344171292624,81.25,0.7190015388602203,581.8,684.0,38.46153846153847,70.67307692307693,317.0,1316.0,12.235294117647058,343.75,,0.0016611731876887,0.0589173106985287,0.1281194595881784,0.0402191663113441,0.22891710978574,0.4598623104398812,0.2573739933798468,0.5596762064141673,-2.054792172263044,89.04836336119199,91.79836798092008,0.9700429900856226,25680.93164159365,1.0308821466889144,5.1165808847894505,378.5331945868392,0.6394230769230769,0.6421568627450981,0.8549618320610687,0.2619047619047619,50.128976784178846,50.497561614203576,49.69108375765661,48.52941176470589,0.4331299054853281,0.5668700945146717,58.605104320589554,67.04526799980032,0.6012315058043823,0.3987684941956178,71.17964627860727,57.96894271601618,0.5197362329354338,0.4802637670645663,65.19624336100522,62.671629469712265,0.7377532621023013,2.5766041875723653,1.2211770385408576,1.2805640751171334,-1.0226909714207348,-0.4589200928789512,-0.4769514320970543,0.0013700563849832,0.3850572599935001,0.4325719700538418,1.4078411974361746,0.6803004191178184,0.7102026560160354,-0.2657286834169019,-0.2208664581737345,-0.4787602202914134,0.0001961654360935,0.0992258947456317,1.0620327595514003,1.5054314931240034,6.947025610062417,1.032899160141011,1.0465733262922952,1.3561004487020851,1.620491677122216,1.4194953782405826,1.905046477749395,2.3778341962434517,1.0736189991639022,9.0
146,80.71481122861402,769.406015037594,430.55176082722505,,,,,,,582.2005342845471,584.3397698530954,0.5595898035787877,0.7566883061813601,687.0,296.52,0.4316157205240174,413.0,0.739524846634365,466.4,952.8,84.9624060150376,91.72932330827066,340.0,4103.0,33.25,343.75,,,0.0794648473288,0.0388491773876774,0.0007379319679565,0.119051956684434,2.045470526591007,0.6674803971465512,0.3263212001685391,-3.248068376455011,413.1906137801103,440.3324103363776,0.9383606658988984,571585.1966630756,1.0656883182992911,6.4640510825461,1877.0284234561905,0.6466165413533834,0.6564885496183206,0.9069767441860463,0.1388888888888889,51.36085989941939,51.9850179021869,50.358807495727966,46.56488549618321,0.4735794035119049,0.5264205964880951,284.38410752130125,299.830187308373,0.5259185393406685,0.4740814606593314,319.33012635221513,303.1846005266796,0.5014081509410009,0.4985918490589989,302.3624068951105,301.51205881182955,0.8283390791861135,2.01863423634333,1.0381867089449528,1.1331768548802363,-0.9576149140347354,-0.1998340287057058,-0.4529433593143877,0.0005627142696319,0.180777909391181,0.2742814608014188,0.6116269363937399,-0.1230259426798996,0.1827875255169703,1.0,-1.668855821612106,0.0,0.001565534289452,0.0768211170947662,1.0762255738502366,1.830840819270526,6.893554803889709,1.2394078190181983,1.2013154669337216,1.3522379956334576,1.7040272843550717,1.5204044140878346,1.9542530552827664,2.1142970013250477,1.2731336725716431,10.0
147,92.9307447068708,652.6148867313916,171.8733788260831,33.18382102931797,175.2855474648349,,,,,214.61350794441572,214.96223997641417,0.2633611067116587,0.3288516892700734,620.0,66.717,0.107608064516129,91.0,0.8008507035381845,570.6,699.0,43.68932038834952,63.75404530744336,329.0,1630.0,16.263157894736842,367.1875,,0.0036358362909749,0.0389442288041835,0.0372315077212871,0.003717937152483,0.0835295099689287,1.046001926532702,0.4662331769774539,0.445728793753687,-3.2905998944346444,152.00125758637242,189.8937525772305,0.8004542304494875,90679.21058181804,1.2492906676731028,5.664477840632717,948.9299717766372,0.6084142394822006,0.6059602649006622,0.8415300546448088,0.303030303030303,50.193359114548606,50.4300578833605,50.03538863835193,45.36423841059602,0.48699129905424,0.5130087009457598,106.07397087135438,108.87059377501842,0.5005927621669267,0.4994072378330733,134.35472981126009,134.195543313501,0.4952811838190751,0.5047188161809251,121.04313429326264,122.1909367222684,0.8098339646100928,3.0239272001032576,1.5545032270020849,2.0189413056177514,-1.0316193128167903,-1.428814407975494,-0.346412281816901,0.0085061685068719,0.917508376119724,0.7238969239331444,0.9495493658520672,0.9066093408113374,1.1275772317321855,0.0798897318495086,-0.7252230357186913,-0.2672918345613709,0.0008272242263014,0.0830538766342038,0.7967579792194237,0.7591905928769368,7.411496411435057,0.7074203719156417,0.7217896212305565,1.026527807561002,1.0038837980487736,1.1676486914615969,1.897915304187341,2.54476269860432,1.0439710617743383,10.0
148,83.07090411647714,738.8152866242038,254.56337233398668,,,,,,,324.3654752566332,325.40386791482496,0.3445561792544089,0.439034601921577,689.0,195.7032,0.2840394775036284,282.0,0.7848041538100806,559.2,908.6,78.98089171974523,92.35668789808918,301.0,1834.0,26.166666666666668,281.25,,,0.0321017582953922,0.0346791416798169,0.0042401393035576,0.0710210392787668,0.9256791471882174,0.45200349954594,0.4882939201114299,-3.361616877093004,230.09528162690435,274.2080851204235,0.8391265397074408,198215.60469450147,1.1917153762633312,6.0041079516647455,1307.1119653349324,0.6178343949044586,0.6258064516129032,0.8144329896907216,0.2352941176470588,50.42508257973684,50.56829182699263,50.02572329317,49.03225806451613,0.4645893414467921,0.535410658553208,156.83778346616813,168.36801090698373,0.5841870414532219,0.4158129585467783,209.5830786223394,176.8191366922475,0.5347691763128498,0.4652308236871503,185.09883463625363,172.64529272089334,0.7629416010654826,3.04696957444531,1.1103563749859362,2.097139231722311,-2.834401419289799,-3.3730499747868192,-0.1761428584609299,0.0066371137838503,0.7758791142314057,0.6350110252638639,1.0753906160298334,1.3965405962813358,0.858845288266419,2.6532531803140054,1.665111493003916,-1.0,0.0013714437649742,0.1162764313466797,0.9145296416607568,2.1400661634962708,7.116276799847041,1.404599072036707,1.4008790441248549,1.2471203665242352,1.5148115417315071,1.8420126080581452,2.012075414112623,3.9113948689469615,1.115101260977064,20.0
149,83.41442485637396,749.4050632911392,345.94865926294506,,,,,,,466.661080552647,469.6562455786029,0.4616310673745023,0.62270873711905,663.0,283.1766,0.4271140271493213,373.0,0.741327429433911,468.00000000000006,950.2000000000004,89.87341772151899,96.20253164556962,312.0,1931.0,19.75,132.8125,,,0.045826275893711,0.1014024106852779,0.0125391329749044,0.1597678195538934,0.4519249156308699,0.2868304519750472,0.6346860773866448,-2.288658414091104,332.09711607524457,361.0756421868129,0.919743890958517,376715.2220525779,1.0872591922930237,6.282983279195779,1570.3312443228758,0.6835443037974683,0.7051282051282051,0.8909090909090909,0.3333333333333333,50.67533766883441,50.95910377312868,50.71088143275253,47.43589743589743,0.5235317250530723,0.4764682749469279,240.30346074651783,229.2479800644629,0.496018012576593,0.503981987423407,254.30032562625075,256.3336961209006,0.508627384065287,0.491372615934713,247.40089820003723,243.16825464134763,0.7673065147276692,0.6818569030229562,0.8747064013184753,0.8141404963113217,0.3348529914038778,0.0860745735205967,-0.5888249495438701,6.400267073722583e-05,0.0190900995343389,,,,,,,,,,0.6179482471833482,1.88706964903238,6.192959387390221,1.4579111832456195,1.3020855431061993,1.040629745953662,1.2538415033895365,1.729910997225234,2.024001850209422,2.974778743006199,1.2767150882384006,13.0
151,75.81823365133333,817.464,321.4356290346533,,,,,,,411.6875185176565,413.3546105874342,0.3932107457143718,0.5036154723849081,790.0,314.3112,0.3978622784810126,414.0,0.7807757451380385,514.6,1080.8,91.2,96.0,311.0,1747.0,25.0,453.125,,,0.057933711745899,0.0452723633267212,0.0074942358481093,0.1107003109207296,1.2796705868391152,0.5233382929464783,0.4089632897159605,-3.0950585137561712,292.28584818109937,348.1721148104805,0.8394866669325269,319706.63277366536,1.1912041481897344,6.211721756390256,1658.9762697849471,0.616,0.6290322580645161,0.8846153846153846,0.2121212121212121,49.76317061382309,50.118146224581714,49.325459151423786,51.61290322580645,0.4668062088831832,0.5331937911168166,199.70056853492116,213.42904991962436,0.5025265161068434,0.4974734838931566,246.81609490354128,245.5720603573796,0.487759629521616,0.5122403704783842,224.49777479588147,230.06259602308452,0.8072558570929388,1.6582480820638956,1.0577073121291234,1.4461241900367714,-0.6562148540789803,-1.1971505149349868,-0.2657667256733896,0.0016604885796835,0.2192983774342434,,,,,,,,,,0.6428526869337192,2.282382385676526,6.815745184644782,1.5393490413309805,1.4206919110019849,1.094132785624004,1.7517199059029351,1.9068823871182703,1.9883001534215248,3.9377635964168194,1.1702517598232307,8.0
152,97.19231836023177,633.096551724138,227.92589329702983,,,,,,,329.37990983057847,330.51047347538486,0.3600175876433221,0.5202680522166241,568.0,94.8864,0.1670535211267605,133.0,0.6919848068883951,499.0,746.2,68.27586206896552,80.6896551724138,323.0,1836.0,18.125,226.5625,,,0.0683896298641867,0.1112020360505824,0.0311360921820332,0.2107277580968024,0.6150033964583022,0.324540205247998,0.5277047364566908,-2.1964065875258814,233.7061970476212,220.16394788239955,1.0615098398056306,161646.49990442692,0.9420543856504492,5.915536415329717,829.6256506589257,0.6689655172413793,0.6805555555555555,0.9183673469387756,0.3333333333333333,50.79182710222332,50.48542785814335,51.06563238746161,46.52777777777778,0.5175982136787687,0.4824017863212313,168.14800548401325,162.33037408214875,0.4938868018934617,0.5061131981065382,154.72479449887908,156.62822834484078,0.5064500454178629,0.493549954582137,161.5758549118217,159.50478404125366,0.6126899449595161,2.550036117915876,1.3307152262161532,1.4958941211975954,0.0874841126326444,0.0021098868924271,-0.435224880219955,0.0120486560912036,0.8097661300627661,0.4986655710057208,1.1846290772735155,0.8294128139496701,0.5924894279253139,0.5425114426704374,0.6314325978084869,-0.6999979492058793,0.0009143385925894,0.1121057682718216,0.8019203077747092,1.038675323443437,6.786670814093177,1.0265636601960433,0.9041579183561764,1.2560578852519082,1.269347361145312,1.3417201785415538,2.021220989101037,2.890661756916099,0.940815673864026,18.0
153,105.70105196338196,574.9513888888889,148.76241582366785,,,,,,,192.01303860156736,192.63527776943656,0.2587391189908346,0.3339639529745956,556.5,100.0755,0.1798301886792452,120.0,0.7747516361758859,469.6,631.8,49.30555555555556,70.13888888888889,347.0,1267.0,18.0,265.625,,,0.036193783809214,0.0396634336289079,0.0180524312881401,0.093909648726262,0.9125227066280752,0.3854107038001557,0.4223573846445016,-3.227325583014025,136.2137112065228,155.71041164891042,0.8747887168499174,66632.84417106345,1.1431331711741366,5.530658461147324,711.9909466121968,0.6111111111111112,0.6223776223776224,0.898876404494382,0.2,51.96860051514781,51.8397695907751,52.01001844799721,44.75524475524475,0.4974291898666759,0.5025708101333238,96.09597608494494,96.59134186842866,0.5769238025663543,0.4230761974336456,118.27062218548188,101.2807593955147,0.5424514408933064,0.4575485591066934,107.755224216414,98.96383063441864,0.7354738063570108,1.811771621430034,1.126353883454455,1.3061954264923137,-0.7861564518989788,-1.064411593237323,-0.4007371895493598,0.0009620906803241,0.2075826250757919,0.6224250728584632,1.3534959904547272,-0.7310709175962642,-0.0543229223689005,0.9647293842377724,-0.9669441988784334,0.0,0.0072699524784326,0.3223367597077317,0.7197350874825132,0.8770700187208741,6.839996008356706,0.8747227694414252,0.679364985532337,1.06163891617539,1.123866124238851,1.4716660159538433,1.9094823090616992,2.449232396671089,0.9460317710236384,17.0
154,88.02133529082533,687.5686274509804,142.44643348804146,12.870020250086974,142.02738139484882,,,,,182.9184448881932,183.27345706209093,0.2071741318624911,0.2660366363228726,701.0,88.95599999999999,0.1268987161198288,119.5,0.7787428631109905,610.8,774.0,50.98039215686274,75.68627450980392,328.0,1347.0,18.214285714285715,414.0625,,0.0029547305071627,0.0391272384839317,0.1140978387678375,0.0104177619309436,0.1665975696898757,0.3429270782555888,0.2348607999310422,0.6848709676871795,-2.17069896385496,129.59390430010603,153.52350399424736,0.8441307091646502,62504.217267570966,1.1846506579408749,5.502879430893786,727.4868800646946,0.6078431372549019,0.6141732283464567,0.8525641025641025,0.1612903225806451,49.34860120680197,49.77267438287187,49.00527907871975,48.4251968503937,0.4408060785355185,0.5591939214644813,86.04445491339854,96.91261701124566,0.562682639745067,0.4373173602549329,115.16131947431536,101.5250549155545,0.5119705381738908,0.4880294618261093,101.65081830563194,99.24563494576157,0.713651186359766,2.23502094926924,1.2808227095264533,1.4159500316692002,-0.2133326290623189,-0.3111263197783076,-0.4395409147341871,0.0035576261922702,0.4451989711846895,0.6520036942738784,1.3064023770405035,0.8409780057864769,1.3052048827941305,-1.3881077634243564,-2.374272172085785,-0.1446524553489384,0.0008793411477939,0.1309896359009043,0.9863432457592158,1.3822799037012288,7.466787456415795,1.0856074653087069,1.2940943865446075,1.4146978296380142,1.8155082668230604,1.5492659461641358,1.917429090305897,3.430072519294021,1.0032129803116998,7.0
155,91.1920596962497,673.8028846153846,245.58618545103965,,,,,,,346.1125518537642,346.94660438902986,0.3644777887693718,0.5136703326097063,615.5,180.1359,0.2926659626320065,263.25,0.7095558486269579,477.0,854.6,87.5,95.1923076923077,313.0,1555.0,14.857142857142858,296.875,,0.0009945389001325,0.0364353540619486,0.0890199726370596,0.0323024033103877,0.1587522689095286,0.4092941503194792,0.2295107610884779,0.5607477187478265,-2.4188945227741696,245.3282966731294,246.23312379659964,0.9963253232972112,189777.18087789556,1.003688229754743,5.985214100905549,988.5651525215584,0.6730769230769231,0.6811594202898551,0.900709219858156,0.2830188679245283,50.35031209623119,50.263219572962456,50.409444236620885,50.24154589371981,0.5106843529206382,0.4893156470793618,175.3194864528672,171.61232133780914,0.4867543159150562,0.5132456840849439,171.7913846802689,176.40428397368203,0.4986754588150364,0.5013245411849637,173.56440041157808,174.0247974272904,0.5906960295791753,1.8322340472268035,0.8656621554699873,1.123031786217452,-0.815060704077732,-0.8520837558610086,-0.3595323391479328,0.0007409060837854,0.1965996740275859,0.5579351321047302,0.4909149991559154,0.5857867687120031,0.7750050329974147,0.3776332664522517,-0.5655915361772019,-0.1145600264592534,0.000110518691463,0.0180560116045613,0.999216822704594,2.026599060305456,7.361356424809453,1.5275491219774562,1.2831596410495496,1.3616899376335612,1.6119485506347473,1.8542558144618364,2.005398168352144,3.973265094665133,1.036597654365147,8.0
156,86.95381637865492,714.4550898203593,293.73091748501423,,,,,,,411.7613942359489,412.9583522065804,0.4111257959669224,0.5763292894161914,630.0,250.5594,0.3977133333333333,351.5,0.7133522510774761,467.4,934.6,85.62874251497006,94.01197604790418,303.0,1780.0,33.4,265.625,,,0.029999796418972,0.0861958522461333,0.0191832055660574,0.1353788542311628,0.3480422275228191,0.221598835278563,0.6367010027943638,-2.451133220264464,292.0056511928957,290.80448171640234,1.0041305053808105,266773.21609917,0.9958864855129126,6.1331123344407725,1158.433013071808,0.6107784431137725,0.6204819277108434,0.9029126213592232,0.173076923076923,51.03048350442756,50.719473294484494,51.248658983847406,50.0,0.5169493729515809,0.483050627048419,209.9745727751844,202.97335248298435,0.5404346915315368,0.4595653084684631,213.78277251117072,197.1399826615149,0.5286422383674287,0.4713577616325711,211.88722830161825,200.07792804550456,0.5325544543338981,1.823665094047093,0.7979096714298826,1.0213727405811648,-0.7414340205185397,-0.6519524828666157,-0.3774648536725725,0.0007359212025395,0.1894521497470144,0.4695643138952158,1.1858300113803717,0.6149635957717654,0.7458491983404718,-0.5127334738511484,-0.6870740696423878,-0.3896253246143194,3.777404209462741e-05,0.0577403231750309,0.8800619034009265,2.0395956331326364,7.187567241562894,1.5538112534247894,1.3456410096539326,1.3827268537407733,1.6556308794722503,1.8660923144646016,2.002692532388082,3.3536472977100478,1.0611311558046543,7.0
157,74.6112557110412,824.6630434782609,336.03442047133547,8.537971102020842,328.2035472952928,,,,,445.09737990200347,446.31805500237306,0.4074808773459893,0.5397324197100835,757.0,225.3552,0.2976951122853368,306.5,0.7549683184954262,585.6,962.4,85.86956521739131,95.65217391304348,367.0,2885.0,36.8,140.625,,0.0054268011764258,0.0565494786604293,0.059528336312171,0.0076312730696639,0.1291358892186901,0.9499589970712384,0.4379067585515555,0.4609743787907052,-2.821302839256398,315.5945232581685,355.63121033926313,0.8874207720888708,352597.4754611959,1.1268611592741204,6.254249308460554,1602.9879918278425,0.6684782608695652,0.6775956284153005,0.9032258064516128,0.3023255813953488,50.10343028798589,50.37963821556431,49.77065337357642,49.18032786885246,0.4856504598319925,0.5143495401680077,219.93370629540885,226.3388311437445,0.4838666479228382,0.5161333520771616,247.378932910166,255.494072963732,0.484652532700094,0.5153474672999062,234.05893660850415,241.35708794555143,0.6237992123260258,2.8358741361681905,1.1017620201823908,1.386394896361576,-1.178507145726858,-0.612399917872547,-0.3996313438071766,0.002884807043984,0.5348029341278754,0.8365197647289078,0.3335101102077384,0.7997290522903224,0.9253514564304002,0.6111894984712656,-0.2385050693867869,-0.1233325458654628,6.086502677532352e-05,0.0063266304905557,0.9575244559953572,1.7001922757025645,7.367285393545256,1.3239671671390836,1.3134011761812436,1.269363263939918,1.6222391714659703,1.6603524309828428,1.9597282439336767,2.513364699337276,1.1040009392040182,16.0
158,83.41980760666482,736.9932432432432,274.5699295489932,,,,,,,361.0844493907716,362.3160125181246,0.3725542019092458,0.4899426863152344,652.5,227.5791,0.3487802298850574,360.0,0.7604036396811124,504.4,942.6,79.72972972972973,91.8918918918919,349.0,1830.0,21.142857142857142,210.9375,,,0.0431183955074331,0.0847111412387796,0.0189050797154781,0.1467346164616909,0.5090050125271378,0.2938529199665057,0.5773084993948637,-2.4685081483265163,256.19610938403594,293.28418707496155,0.8735421842520062,236053.8297232792,1.1447644063764093,6.07998116075404,1342.9651932658246,0.668918918918919,0.6802721088435374,0.94,0.225,49.7272657430408,49.532539499846166,50.02827287882955,49.65986394557823,0.5180480942678581,0.4819519057321421,184.40006388730956,177.85983206731558,0.4585575940401832,0.5414424059598165,198.60290326113264,215.80662919491195,0.4843058804502697,0.5156941195497302,191.6331087591529,197.7455702000476,0.7994988098505641,3.038557501480785,1.3196455670390808,2.171367676231919,-1.5897996724173762,-2.280962758602009,-0.2196952472422302,0.013285212207499,1.0394307499287747,0.8176980745968085,0.8425555939867007,1.0506341690448353,0.7792356648809102,-1.547910098493274,-2.5476119447350385,-0.8221134677650825,0.0026705550427261,0.1216952644211337,0.7553533632347231,1.330413902725434,6.983035966951066,1.2901846002970268,1.1198946427190837,1.410512358553634,1.6903146494750914,1.668139592359554,1.94684929839937,3.834892658714444,1.1203880230369314,20.0
159,103.77573760314084,581.4719471947195,116.76184954190958,22.023062644419944,108.580678750712,,,,,154.78700383524253,155.04142053877877,0.2008039254605848,0.2661985751539764,547.0,51.891,0.0948647166361974,89.5,0.7543388440168565,513.0,625.6,34.98349834983499,60.3960396039604,314.0,1247.0,13.173913043478262,312.5,,0.0061536078906094,0.0294506216561462,0.0797131702279082,0.0185318044504594,0.1338492042251234,0.3694574130215106,0.2200283657018441,0.5955445957963053,-2.5293204593107563,109.63083982776573,121.67388700626267,0.9010219244670216,41906.36545263708,1.109850906892778,5.32925010598265,540.1594953562801,0.5841584158415841,0.5880398671096345,0.8361581920903954,0.2608695652173913,50.53624185519444,50.41007833632576,50.57626887287133,47.8405315614618,0.4926562647058864,0.5073437352941135,76.95054933650161,78.08918149001646,0.5846717626542074,0.4153282373457924,93.03651672670176,78.41391033850387,0.5434411834033699,0.4565588165966301,85.37324079542495,78.25171435935334,0.6793075591356892,2.424803909919455,1.4306057535558196,1.3616055618538208,-0.1337528949693283,-0.0410216057803984,-0.5284559883047578,0.0057461039986473,0.5697634805459435,0.6737230532649394,0.4848079421259106,0.742302398966642,0.911168699847768,0.4858478225372948,-0.5042355285024516,-0.151684128480574,0.0002578208065541,0.0243703523926755,0.9597788915832256,0.9961010165367672,7.229735308574249,0.8293044482269725,1.0298291974954334,1.3441163598347676,1.4105092644356312,1.2318548372343618,1.9025554896814776,3.002675699588738,0.8161558399478169,14.0
160,116.2033549452449,518.625,93.61575659962872,,,,,,,119.47400223187606,119.75253717003729,0.1805076049161315,0.2303668396854684,504.0,41.5128,0.0823666666666666,55.75,0.7835659210439653,469.0,539.0,24.074074074074076,56.481481481481474,303.0,1000.0,11.36842105263158,250.0,,,0.0333988098459972,0.026630138458082,0.0018910485630481,0.0619199968671275,1.2541733456838604,0.5393864912116657,0.4300733172714299,-3.6257116798426594,84.67783109722744,102.09418741374613,0.8294089334788739,27159.42775600198,1.205677874490209,5.140890725164188,492.37081151524194,0.5833333333333334,0.5868544600938967,0.824,0.1836734693877551,50.2232854864434,50.08491538072649,50.33453310428689,47.88732394366197,0.5194462673815332,0.4805537326184668,61.02967716879308,58.70049116959245,0.4248906198241475,0.5751093801758527,66.54870190383163,77.42411367647725,0.4634273148279529,0.536572685172047,63.848849717172456,68.70313326966782,0.8898240491889398,1.1876468921870404,1.307037211427486,1.172686385722839,0.3206674995266851,-0.0711336556604009,-0.6131235442019651,0.00207229877985,0.1410773427885638,0.8442855851698916,0.5858335522030453,0.9084478691139471,1.0381964917745563,-0.4332950275437266,-1.4332950275437266,-0.2785230597109278,0.0007310248415298,0.0373446493418785,0.955056299012946,1.0945175183956144,6.582213979091757,0.7617730556634044,0.7158181852793073,1.1670739916383157,1.1820263254931755,1.354466614433836,1.8823296040747053,2.4131968571344937,1.005263194724894,9.0
161,85.17940426348825,709.0811965811965,147.28663854484907,9.739663100658753,143.80446993817523,,,,,185.3020732995147,185.7007435860663,0.2077147712490262,0.2613270161343163,708.0,81.54299999999999,0.1151737288135593,106.75,0.7948461445802658,630.2,764.4,52.991452991453,77.77777777777779,310.0,1916.0,16.714285714285715,382.8125,,0.0069711921958785,0.0364896670698001,0.0964908450508632,0.0202433216447484,0.1601950259612903,0.3781671416657753,0.2277827719733167,0.6023335897718779,-2.3383071450768758,131.31025506109174,162.21928178415237,0.8094614500624658,66919.23874021629,1.2353892824949604,5.53252110183368,801.6158485206872,0.5811965811965812,0.5844155844155845,0.8222222222222222,0.2280701754385964,50.14093329157532,50.5660087075085,49.499486087026966,46.32034632034632,0.4172447980673179,0.582755201932682,84.81930591069708,100.24029319246,0.603134929651551,0.3968650703484491,125.9823527417151,102.1936503909528,0.5295495349451724,0.4704504650548276,107.39149840073549,101.2216838418,0.8395381179166288,2.9703656469211834,1.40890561284181,2.114326342633852,-1.5977170397156844,-2.13620656396924,-0.262513840502021,0.0075182303861009,0.8438449659765167,0.515417195303835,1.271005204844644,0.6610334847764441,0.6976460918156256,-0.3552710252923043,-0.1644058197396811,-0.4711939755245481,3.939809058261065e-05,0.0627433425454442,0.983373728811474,1.3097720951811986,7.1740700486137925,1.0076636884596744,0.9964643387228782,1.3407244526498807,1.4759235090831773,1.328932308536743,1.9625900877763731,2.2273793184270287,1.0090211178953084,17.0
162,97.7934096446634,622.9939393939394,189.42430423843663,,,,,,,263.3442868463908,264.1474601520395,0.3040548105856572,0.4227076223286814,581.0,88.95599999999999,0.1531084337349397,121.0,0.7193028810567218,513.8,668.0000000000001,52.121212121212125,78.18181818181819,322.0,1525.0,18.33333333333333,296.875,,,0.0498680224965346,0.0793204776073274,0.0190966574596258,0.1482851575634879,0.6286903962354355,0.3362981387748385,0.534918523948471,-2.534258954076261,186.7804603067105,192.60370090298437,0.9697656869054294,113017.56393033871,1.0311769260377213,5.760116051898954,794.4339689625124,0.5393939393939394,0.5487804878048781,0.8,0.1590909090909091,50.4346445441194,50.498133281118776,50.319632399094,45.1219512195122,0.489629210524349,0.510370789475651,130.69852445409828,133.43812472016518,0.5165857638017596,0.4834142361982402,138.4317932163572,133.91349531854502,0.5035209779129429,0.4964790220870572,134.62069987110974,133.6760213300507,0.4777846206496067,4.252038756408742,1.3028096395385351,2.076388989578797,-2.128678285153141,-1.972938074607688,-0.3180686032378444,0.0148530752028562,1.658796476267833,0.3236760589660599,1.518919177666521,0.5363126099295261,0.9154470127221122,-1.4270635741948745,-2.079498770779189,-0.2503919837426498,0.0002481345015202,0.1197364248780488,0.850397120266364,1.1653893382867797,6.932929638462015,0.8816626944041935,1.4327834023644472,1.2708540324669328,1.2556292472842046,1.454352992147278,1.9602863024492232,2.8237032442070578,0.9375319181767402,24.0
163,89.62848220934455,680.5741935483871,188.18348839292076,,,,,,,243.7382431397075,244.5327886769741,0.2765069410166246,0.3581361818450707,649.0,192.738,0.2969768875192604,262.5,0.7720720637387071,521.4,843.2,78.70967741935485,87.74193548387098,301.0,1275.0,31.0,257.8125,,,0.0496243440203794,0.0973637179195026,0.0224637172422073,0.1694517791820894,0.5096800438681615,0.2928523044131281,0.5745806765172858,-2.3293016436911587,172.91079309594537,203.3689422768244,0.8502320519550148,110473.11637649014,1.176149496717526,5.750226715314743,956.7691164274504,0.6645161290322581,0.673202614379085,0.9514563106796116,0.2926829268292683,50.15365491523084,50.18795944878418,50.17282514387896,50.326797385620914,0.5052537014627907,0.4947462985372094,122.90741241334383,121.62268880177147,0.4847501594217684,0.5152498405782316,141.59359555784215,145.98006843331916,0.493353092822261,0.5066469071777387,132.5801235652267,134.35449157205184,0.6433380942398339,3.881667129227988,1.4012760849241563,2.507433878774103,-1.411963129536229,-2.258487569376779,-0.2150302287589644,0.0518794967014891,2.487840262603324,0.8390190867763705,2.662209190864432,0.936229415992904,2.1692101467725773,-4.892596990898557,-5.892596990898557,-0.036858059460264,0.0053187487005558,0.5754253276529091,0.7793435555048216,1.6347557204183902,7.095479243983915,1.4751700984165512,1.635368917022672,1.2790667628329655,1.7423210218418166,1.8063115522132336,1.9410911015957983,4.011951025464563,0.9857975000694128,13.0
164,83.6146054694493,719.2,99.35180136657117,,,,,,,93.91936874834155,94.15631228329444,0.1381421042360555,0.1305886662240566,719.0,105.2646,0.1464041724617524,141.0,1.057841451562413,643.0,809.4000000000001,54.59459459459459,77.83783783783784,386.0,952.0,15.416666666666666,351.5625,,0.0004587344675328,0.0221589286559568,0.017709000112622,0.0067624243194427,0.0470890875555545,1.2512806208727258,0.4705746024450847,0.3760743949801404,-4.033682287695881,66.57856690703571,122.38677667644755,0.5440013105586452,25598.75314329537,1.8382308656078077,5.115188922298093,899.9006017155824,0.5945945945945946,0.5989010989010989,0.8348623853211009,0.2045454545454545,51.355328376703845,51.64754248720767,51.1163801338986,46.15384615384615,0.4858727717684635,0.5141272282315363,46.41782797695688,47.74840139801095,0.5773166448487946,0.4226833551512054,92.9911323939732,79.56866469494882,0.556428111005119,0.443571888994881,73.49137860324778,65.61662227440074,0.9151869612270048,1.8924003874482096,1.1500379279475177,1.132587243264719,-0.7214358118124977,0.1861083728412511,-0.5092214548245415,0.0001295873170934,0.1459885261056933,0.42542890669004,1.506125555065094,0.5417998822580063,0.6894176948656213,-1.1429139149162602,-0.7839398574116909,-0.4019883753308767,0.0001260826271944,0.077983762919842,0.9004127179692185,1.9095425048844383,7.0718163253344,1.217855668923625,1.2296621350774326,1.3668526704590944,1.7565131279699877,1.9516578221084933,1.91139779939414,2.645027755423418,0.8956237412505884,12.0
165,89.45192131391711,693.6701030927835,484.8490684749543,,,,,,,672.3642908300034,675.8937084730917,0.6989620373044997,0.9692853819592534,602.0,126.021,0.2093372093023255,183.0,0.7211106762919102,514.0,770.2000000000003,69.0721649484536,83.50515463917526,312.0,4819.0,16.166666666666668,304.6875,,,0.0437390625046905,0.0156976312229809,0.000987693696564,0.0604243874242354,2.786347945329334,0.7238643926598971,0.2597896626203083,-4.15424545552817,477.9290246226466,494.3054909327106,0.9668697463199064,742179.0883701402,1.0342654776470086,6.57747882347038,2044.972418732236,0.6494845360824743,0.6666666666666666,0.90625,0.3478260869565217,49.94509581665545,48.66157294960412,51.777986841045234,52.083333333333336,0.548136701241978,0.451863298758022,353.8407908412453,321.267645429788,0.4522030124239415,0.5477969875760587,332.40087655510683,365.8518492937061,0.498554399035835,0.501445600964165,343.28825205485936,344.28220665002755,0.8331645463462994,2.076268843525673,1.1384427491692162,1.24905729783359,-0.5909195069231785,-0.1400403087420549,-0.4467243613420787,0.001512514016865,0.2565502598493225,,,,,,,,,,0.7270369095080684,0.6206078361788504,6.476201501980942,0.7462194445086197,0.5003421183269986,0.6681839429754339,0.5812621997877871,0.8602145490580092,2.0150103831920823,1.6811395842964438,1.020605078688731,14.0
166,87.20021762223372,704.2461538461539,295.3368877067094,,,,,,,389.7546611347819,390.75973565755714,0.419365993117269,0.5534352711849183,613.0,115.6428,0.1886505709624795,190.5,0.7577507523497667,536.8,845.8000000000002,62.05128205128205,79.48717948717949,311.0,2979.0,17.727272727272727,312.5,,0.0051111622198286,0.0664009685964161,0.0465414464252277,0.0056637554728145,0.123717332714287,1.426706166150082,0.5367151646387542,0.3761918027501499,-3.0674120424068447,276.3088588981214,313.853014342595,0.8803766294132476,272440.07182568684,1.1358774944610683,6.142241096069115,1425.994302242082,0.6410256410256411,0.6494845360824741,0.8888888888888888,0.2549019607843137,50.331940526438586,50.03959069722163,50.547131162712,48.96907216494845,0.5203371789355156,0.4796628210644844,199.31544764115444,191.36678424948684,0.4650731491776039,0.5349268508223959,214.036054813818,229.54799465834895,0.4892038524218565,0.5107961475781435,206.80677023329952,211.32147070950825,0.7902360133337112,1.5778951821473548,1.896448056245895,1.2568710874823237,0.8536844994668416,0.6683667768761734,-0.9053355229167837,0.0112138723780442,0.4527297298356956,0.7590705119072746,2.300469404250285,0.7595179159438672,1.7533437738065067,-2.7304853245813554,-3.171225809685097,-0.0679899693399643,0.0038364586644055,0.4066688212588217,0.9432774125094944,0.9593370548643352,7.288024352177866,1.0398790459092722,1.1923745868259643,1.078384018242536,1.0074975045114838,1.1160233378178808,1.9774588104902504,2.2280711226871115,0.936286807846106,10.0
167,99.78195846645951,602.4314516129032,73.34188243658448,,,,,,,88.6907925331708,88.87058517372795,0.1217431165657513,0.1472213847662119,590.0,40.7715,0.0691042372881355,55.5,0.8269390806171256,559.0,628.0,10.080645161290322,29.83870967741936,348.0,1185.0,8.266666666666667,265.625,,0.0004930712156976,0.0501202609735399,0.0439631903712131,0.0127286178325476,0.1073051403929984,1.1400505866461947,0.4670816401709888,0.4097025567479873,-3.124402577666709,62.84099342435968,82.73538325534052,0.7595419390325158,16333.68582246532,1.3165829937893532,4.920054307664507,435.71199431450304,0.5080645161290323,0.5041322314049587,0.8032786885245902,0.2,50.34956304619227,50.42963939058315,50.25277830166204,54.54545454545454,0.5051546232570012,0.4948453767429987,44.66389840954561,44.2057964414667,0.4685427713642963,0.5314572286357037,56.632522216484205,60.315015293105134,0.4819371253245822,0.5180628746754179,51.000521535268575,52.8774692512411,0.9013625096139266,2.054220148611837,2.085690886187046,1.1098324268698367,0.9680895578301908,1.596453466739571,-0.9750505733169138,0.0102504122231965,0.605214430625091,0.8800246220409969,2.130530216717637,1.2147050349384982,1.56822296896679,-1.087046733904728,-1.2371323462984427,-0.3340704434725489,0.0013256982476587,0.2935479375604168,0.7594026538768701,0.6498565719565516,6.707938574522734,0.5813721872744968,1.2145584392067637,1.1820022492392612,1.2696392246557036,1.019286398771209,1.640418386523156,1.864120854732416,0.6735408166053402,11.0
168,90.5204495632502,673.2227979274611,194.75817563724377,,,,,,,265.2606324447712,265.9349861480208,0.2892923059599486,0.3940161165982271,632.0,84.5082,0.1337155063291139,116.0,0.7342143982778656,572.4,728.6000000000001,58.03108808290155,77.720207253886,307.0,1556.0,17.545454545454547,320.3125,,0.0033003850839957,0.0384140557789454,0.0982040741662512,0.0424015443232602,0.1823200593524526,0.3911656018864718,0.2106957178238141,0.5386355978329721,-2.3207075760276417,188.04443206001605,199.41375517815695,0.9429862643728688,117805.47185323696,1.06046083361039,5.77813557308245,845.8819081984262,0.6217616580310881,0.6263157894736842,0.8487394957983193,0.1875,49.03000476266073,48.65676720703553,49.43882052707472,54.736842105263165,0.5273517208146572,0.472648279185343,136.56578876016448,129.2887611884092,0.4109287731326041,0.5890712268673959,127.83164791387124,153.0520027503005,0.4657311209983106,0.5342688790016891,132.27082986823248,141.66950856749574,0.6192535612536115,2.1653703512849,1.2405214375808011,1.2860946794718515,0.2792284282084694,0.2115540252997874,-0.4789536040040412,0.0071499512020183,0.5352556644548527,0.6397996767105765,1.591100947466502,0.808053406604258,1.3629456417170809,-1.0140152768370054,-1.869206259383512,-0.1512526524502588,0.0015028743317165,0.2005719710595136,0.832076185498078,1.138303700818079,7.1505699257906485,1.0405871618895262,1.1817360081872477,1.3113815825749884,1.4788331071634804,1.3585116056313782,1.973519415117568,3.3418919613926263,1.0228180464713477,14.0
169,83.71498875944395,738.9080459770115,349.8941584699862,,,,,,,456.4057874025772,457.7276228177794,0.4735286892259283,0.6176760286851398,695.0,250.5594,0.3605171223021582,340.5,0.7666295391678692,468.4,894.4000000000001,89.08045977011494,94.82758620689656,318.0,2502.0,21.75,414.0625,,,0.0594719358291475,0.0632851244159217,0.014471845815203,0.1372289060602722,0.9397458941265054,0.4333776136277503,0.4611646790227002,-2.760104978777396,323.6623060308501,375.5117606727503,0.8619232203300132,381826.0370677616,1.1601961478855622,6.28883564996837,1742.669192873,0.6724137931034483,0.6802325581395349,0.9145299145299144,0.3157894736842105,50.25794581334103,50.29716987078088,50.36816801901915,52.90697674418605,0.5188131746888891,0.4811868253111108,233.1312386159449,224.51834751773185,0.4406341220298066,0.5593658779701933,249.26574819480595,280.8481247586183,0.473957994567824,0.5260420054321759,241.33336657176213,254.2480654326847,0.650395972064523,2.3133954161962,1.08213010191969,1.1276996437235007,-0.5334282745135255,0.0671440398174474,-0.4803018794431873,0.0011421228106678,0.3248012461771857,0.7295834134273855,0.5569042638265123,0.6792973886793989,0.5708486702521075,1.006586063519556,1.2057310179334066,-0.6947349400454143,0.0001472430161143,0.0227948625516093,0.9782638425888948,1.822359909676772,7.030446728545182,1.2342823319579006,1.1520939780400126,1.3733514743119215,1.5864828682853545,1.7292450857846078,1.974115982379004,2.77094300048362,1.1121639706440627,11.0
171,83.09636927032511,734.8659217877095,231.47864684352788,,,,,,,299.9953838596165,300.83979017072375,0.3149943955496118,0.4082314541540003,695.0,133.434,0.1919913669064748,177.0,0.7716073623047774,579.8,861.2,63.68715083798882,81.00558659217877,315.0,1568.0,22.375,453.125,,0.0026249297348167,0.0367247786327181,0.0586091332303918,0.0105400343380855,0.1084988759360123,0.6266050461513136,0.3384807290941592,0.5401819394419979,-2.836864737369715,212.7258556804568,249.6891491226935,0.8519627562026194,166866.75534350696,1.173760229211444,5.929339931308493,1172.3007716234524,0.6312849162011173,0.6384180790960452,0.8407079646017699,0.3783783783783784,50.27311231196144,49.80231604988964,50.98208967110157,49.717514124293785,0.5694001070070382,0.4305998929929616,160.52094746876867,139.5917979556721,0.3455658610713838,0.6544341389286162,146.77939222810363,201.9912899279649,0.4397049894462408,0.560295010553759,153.80371347780047,173.61790124186555,0.6605897699684009,1.834328355082712,1.168035262775426,1.312244005291967,-0.193723595326487,-0.5784826506785019,-0.4213833542304706,0.0038330648012708,0.3324907312436687,0.5778317987007132,1.8350721394297835,0.904861999559912,1.2031000500071736,-0.6693635930944453,-0.9969244694958256,-0.3374788412732734,0.0013667702661064,0.2420843753592077,0.7513260275147746,1.0714261483639531,7.229571224167457,0.9931767145812702,1.2542894620559797,1.305727698764972,1.6235194875963497,1.4866466942881424,1.9180612962119197,3.4981344997275,0.9197985871497968,16.0
172,82.55680564094642,753.6686746987951,346.8537441938075,,,,,,,464.4726759096456,465.8865923434061,0.4602204600482143,0.6162823154289554,666.5,306.1569,0.4593501875468867,460.25,0.7467688890729954,462.0,993.0,87.34939759036145,93.97590361445783,314.0,2329.0,20.75,296.875,,,0.0504748382785724,0.0984664750138227,0.01307005323237,0.1620113665247653,0.5126093756426922,0.3115512161972708,0.6077751032287666,-2.318039143927684,329.4315687099151,365.4405459291799,0.9014641981564818,378208.9640977919,1.1093063951347446,6.284701927998232,1621.5421385630862,0.608433734939759,0.6134969325153374,0.86,0.1739130434782608,49.98812763703446,50.27975758119513,49.67877307711579,47.85276073619632,0.4822590737289117,0.5177409262710881,228.77334613638672,237.03990736356363,0.5699240455131205,0.4300759544868793,275.8831787351898,239.6565548863296,0.5306222798049864,0.4693777201950134,253.42530675868943,238.3518218756793,0.6706925721219392,2.882628739124917,0.9864621976878885,1.6485944903692578,-1.795626498896512,-1.5840732113307094,-0.270302611746536,0.0065995611598878,0.6472755322751715,0.5968800196035872,0.4769466195089409,0.8455240969021376,0.8245233517766737,-0.3047163820958873,-1.3047163820958874,-0.5440316468687545,0.0001188975455374,0.0181385032070883,0.973892481763072,1.898139872786627,7.180673994560839,1.5208682739772026,1.3607325243385526,1.4902527995455823,1.97037918095584,1.729432902272933,1.9893335864840664,3.249476517939754,1.1106987095401994,11.0
173,107.84541027137878,561.0851063829788,158.81301559548376,,,,,,,190.63131732561453,191.03949839062903,0.2830462148946849,0.3397547273256184,502.0,51.891,0.1033685258964143,95.0,0.8330898502066038,470.0,609.2,37.4468085106383,62.12765957446808,301.0,1518.0,9.4,234.375,,0.0021353008968468,0.0244072198530711,0.0413439042770674,0.0066135667310373,0.0744999917580228,0.5903462742537666,0.3276137255470605,0.5549517966572822,-3.185830286104588,135.08532478649033,179.7249661583537,0.7516224800257751,76272.23180785553,1.3304551507902045,5.58933656446189,956.4640278039074,0.5446808510638298,0.5493562231759657,0.7421875,0.1551724137931034,49.80132987349983,49.54379675719428,50.27577270884396,51.50214592274678,0.5359103112435512,0.4640896887564486,98.890660129985,92.02592236031155,0.4764941374925182,0.5235058625074819,124.0615467167804,130.03767179883494,0.4979432270660198,0.5020567729339802,112.18429042139566,112.6467187119261,0.7896138840835399,2.45077887850607,1.3617571798008712,1.7357668731114149,-1.2650290822748236,-1.5834508731598156,-0.3473914980291775,0.0041973826693445,0.49044084885773,0.5986027632383388,0.8556226911229099,0.6988341613170597,0.7227890949423046,0.2140544684921517,0.0183484303181544,-0.4720029238661182,6.717563555890698e-05,0.0317948807797645,0.7638546658434335,0.6749384705868887,6.961483676450112,0.7824421222880061,1.0051331480214285,1.0523643604361328,0.986733072792564,0.950573454920293,1.9446786320208784,2.413937133924553,0.8044102413513191,15.0
175,94.34254444226944,641.4242424242424,134.51589585617623,,,,,,,173.9125270737296,174.44502228864786,0.209714393312884,0.2711349455961202,636.0,71.1648,0.1118943396226415,97.0,0.7734686978537705,572.8,693.2,47.27272727272727,70.9090909090909,337.0,1398.0,16.5,304.6875,,,0.0538661972158597,0.0601703090001201,0.0043215442093296,0.1183580504253095,0.8952288613932866,0.455112238012507,0.5083752966858045,-2.8105762543115067,123.35125820454132,145.32612629166783,0.8487892807173348,56316.69422205383,1.178148714548884,5.457607263850522,684.863155523589,0.5636363636363636,0.5652173913043479,0.8021978021978022,0.1707317073170731,50.11080175009944,50.16891723052041,49.96446546654512,46.58385093167702,0.4825631573100917,0.5174368426899082,85.68820995419017,88.73044587141369,0.5238126289736399,0.4761873710263604,105.17963998029552,100.2842276559839,0.506539210884211,0.4934607891157889,95.93025068125787,94.68373234377984,0.7322070978959389,3.0061318159032013,1.303721682772186,1.945536822414467,-1.6473820132688566,-1.9708114286235652,-0.2864980050951474,0.0077581702799844,0.8279760044740603,0.5798111419865556,0.6954400888141672,0.6277934317531448,0.7202837675471199,-0.2468137283159333,-0.6597521560130075,-0.3670045956774143,5.80562859568784e-05,0.015170095462819,0.7538871299194523,1.127882670968223,6.92377948692064,0.9905335472555352,1.2222640034716816,1.2635468522875624,1.4953680076707665,1.3701569622492156,1.933154678395219,2.4614970483525584,1.071465049344846,13.0
176,111.83861496087188,540.7094594594595,129.2435227831621,23.0666104549172,116.5218286304703,,,,,167.73918414701166,168.0241818233007,0.2390258215796062,0.3102205467511118,519.0,50.4084,0.0971260115606936,65.75,0.7705028699191072,469.0,561.0,31.08108108108108,58.108108108108105,312.0,1275.0,9.866666666666667,234.375,,0.0042267019944778,0.046940803355423,0.0958271391518834,0.0228469196697083,0.1698415641714927,0.4898487398337456,0.2763799520123703,0.5642148882656584,-2.345209344438638,118.81103837057732,139.27292041984947,0.8530806851210692,51984.43721107312,1.172222062275481,5.4228434565780805,653.0351599747397,0.6283783783783784,0.6313993174061433,0.8702702702702703,0.1971830985915492,50.05838847800701,49.778714587146375,50.43111639864939,52.218430034129696,0.5406619175716196,0.4593380824283805,87.36143547448877,80.52358424118749,0.4885779760072001,0.5114220239927997,97.34947762777117,99.59932513764238,0.5105163326618409,0.4894836673381592,92.49038112842648,90.5650958894248,0.7475749297797581,1.2919602387370088,1.4937391526686357,1.0477344656058925,0.3972279635316766,0.0861923075755886,-0.8452154901444547,0.0049350648677923,0.2232431276726403,0.51396273354202,1.125654303760235,1.2571711470220135,0.7649335141646634,0.9532815589859543,0.6732186333412349,-0.937290233078696,0.0032733790006282,0.179564928717858,0.8270553945243093,0.6695357684903983,7.146851911572505,0.6237690374984477,0.9184892988956654,0.9250318278475173,0.8754738705004463,1.1615791516651404,1.938577256430228,2.5924203057114403,0.85977383221114,23.0
178,107.15797281951484,573.3884615384616,206.50924577901733,,,,,,,292.5095121048454,293.07414330405703,0.3601559145869997,0.5101419573739094,492.5,150.4839,0.3055510659898477,265.5,0.7059915566267034,407.8,776.2,72.6923076923077,84.23076923076923,304.0,1321.0,26.0,164.0625,,0.0041592070606785,0.050684767939967,0.1258635094513406,0.0397085313816336,0.2204160158336199,0.4026962871201524,0.2299504768211865,0.5710270597865639,-2.0725572175017093,207.23471412073675,206.2561105671034,1.0047446039341217,134282.43345338287,0.9952778010296904,5.834989312852035,821.1285126966536,0.6807692307692308,0.6848249027237354,0.9034090909090908,0.2950819672131147,50.233509521396,50.37334807157908,50.03077471569818,50.19455252918288,0.4924391631781037,0.5075608368218962,145.42575158755827,147.64171355479232,0.4954843931648429,0.5045156068351572,145.18502164307753,146.50219328313244,0.4939545622751638,0.5060454377248361,145.30543646799163,147.0730570467678,0.5920404222872533,2.9771163771798568,1.164065697078987,1.7696909703242372,-1.1085265051564424,-1.3557467267050594,-0.296573194824536,0.0117629250051725,0.945249675567199,0.5674158157023753,0.6102578537221525,0.5802378027595362,0.8725447425634516,-0.5322263102001408,-1.53260382820599,-0.0210107694296035,0.0001011694022187,0.0221605696129116,1.011574850687294,1.2492293959140568,7.537602043731116,1.305237528706404,1.175308085223119,1.324939355874391,1.5216487597948605,1.5719061290148788,1.984882013834772,3.850790698346861,1.049078867857567,17.0
179,98.75997597088704,609.8322981366459,118.66661472507994,,,,,,,130.56478277085287,130.97068422279148,0.1945889305759436,0.2140994879572564,583.0,103.782,0.1780137221269296,141.0,0.908871536464356,516.0,679.0,32.298136645962735,63.35403726708074,379.0,1183.0,20.125,164.0625,,,0.0239444728097364,0.060422816294754,0.0081646284105472,0.0925319175150377,0.3962819722425837,0.2587698758738587,0.6529943171763891,-2.8063884921477498,92.61025895057782,140.24041324200846,0.6603678412638675,40802.06600362832,1.5143075381837432,5.317652264013898,849.4684597215066,0.5714285714285714,0.5786163522012578,0.782608695652174,0.2051282051282051,49.22845314264208,49.08895867587415,49.459142196500615,47.79874213836478,0.5230511236107476,0.4769488763892526,66.97990874956929,63.95999142545795,0.4421886546757309,0.5578113453242691,93.25604233373396,104.74103338490664,0.4667446257886576,0.5332553742113425,81.18804594228084,86.78008002324837,0.7779471155568184,2.41004953246902,1.4473076172140424,1.5590365621222282,-0.4115852982410573,-0.5835612797370273,-0.4536403947707568,0.0039604601173493,0.5131573088862332,0.3963322420963628,1.8274962408491373,0.4845781992936482,0.2882233732298145,0.9887344511649256,2.470990195361992,-0.6074447222789352,0.0041641448158716,0.3442079253125963,0.858443294541702,1.0829461719237103,6.872690558171655,0.7877551430236597,1.2103653668368124,1.1324148035666324,1.3617865489834031,1.4253799089073438,1.8564181976463237,2.6196817728321444,0.7740719684965744,13.0
180,117.82541818116532,515.7106382978724,145.51441793346083,,,,,,,193.9186211376608,194.33364172041215,0.282162916812688,0.3760221464069434,520.0,105.2646,0.202431923076923,148.5,0.7503890914641027,403.6,591.0,57.87234042553191,74.8936170212766,301.0,1256.0,16.785714285714285,242.1875,,,0.0215948752010882,0.0670968109485173,0.0151930675019013,0.1038847536515069,0.3218465214040919,0.2078733831677622,0.645877364965422,-2.7016187629816675,137.4146358731804,153.47759519190566,0.8953400377518268,66256.4022463625,1.116894093679728,5.528197959754441,685.6728783280306,0.7191489361702128,0.7264957264957265,0.9529411764705882,0.3090909090909091,50.21046301864101,50.188548862552906,50.15694405657551,46.58119658119658,0.4943128747896029,0.5056871252103968,96.61297285357256,97.71819428111752,0.5011512281265696,0.4988487718734303,108.64991357559148,108.40003923388112,0.4981085032212769,0.5018914967787231,102.80775808174364,103.19741760206308,0.6523750056371453,1.2261701270634746,0.9200861056892542,0.6765669302153834,1.0120787615267433,1.3931169068512237,-0.6986014583939254,0.0032921765316906,0.1828297605656481,0.4742162555042657,0.5087431734563623,0.5638176785017233,0.7285878422324469,-0.0237854327604836,-1.0199331918507182,-0.1761230964313727,9.957680770737952e-05,0.0170856331791102,1.0140488188451895,1.1988966512940753,7.253947744336072,1.08011155215623,1.0439008919778352,1.3155938508429956,1.527106609768185,1.558288603435233,1.952373310088397,3.068214175280489,1.1060640818580638,20.0
181,103.79890520653882,591.2983870967741,217.8043419665715,,,,,,,269.6126851615109,270.7109099660069,0.3683492915243228,0.4559672257610692,498.0,154.93169999999998,0.3111078313253012,336.0,0.8078415963110055,414.0,801.0,78.2258064516129,91.93548387096774,310.0,1354.0,15.5,117.1875,,,0.0514421396765646,0.0434465337217047,0.0146465625085997,0.1095352359068691,1.1840332305006322,0.4696401048545026,0.3966443616248251,-3.1362242067083885,191.4215201781444,242.463353950234,0.7894863989113751,145809.8092933463,1.26664626696407,5.870756851904443,1228.4612086266077,0.6935483870967742,0.7049180327868853,0.9186046511627908,0.25,50.37540783835842,50.19845167747947,50.55888655859875,50.0,0.5233911937969307,0.4766088062030693,138.48768957540747,132.15359915829686,0.4946574460099834,0.5053425539900165,170.52905437679922,172.36101537804635,0.5056904727330724,0.4943095272669277,155.3367286744828,153.57879637606706,0.9201259559352633,3.611584539290953,1.42144974675782,2.6602864473795687,-2.043846025870943,-2.9148674556539884,-0.1569824997465061,0.0324784309556018,1.8053957371982272,,,,,,,,,,0.7787355078508265,1.410199881973445,6.673914959562974,1.4701239015052108,1.643266378573086,1.555451953627199,1.8724694660124053,1.6215929203944748,1.929754795415832,3.212536104967884,1.1216445661914316,19.0
183,83.34416842341916,740.22,321.7138640711191,,,,,,,416.86059826908775,418.2654624730195,0.4346192538314542,0.5631577075316632,642.5,223.1313,0.3472860700389105,356.75,0.7717540717615377,514.8,982.8,86.0,94.66666666666669,307.0,2766.0,25.0,273.4375,,,0.0639305039040747,0.0943247532569627,0.0121392948121788,0.1703945519732162,0.6777701684510432,0.3751910091240695,0.5535667200896736,-2.3610116290168413,295.7583448507995,347.48123070984497,0.8511491232105274,322862.9650607941,1.1748822535679864,6.215988340819199,1632.99812563584,0.64,0.6510067114093959,0.865979381443299,0.3055555555555556,50.16186430949375,49.90272251157318,50.24049608081963,53.02013422818792,0.522504106554958,0.4774958934450419,213.7878305387996,204.37273017170816,0.4529899054952924,0.5470100945047076,233.87059100549905,256.99757267018515,0.4821933663958186,0.5178066336041813,224.0543347312744,232.1809264304509,0.6087154898650389,2.5183290698628387,1.0040294706028596,1.1143708939101131,-0.6395423622799328,0.1669937905408955,-0.4561846683867794,0.0020780995083396,0.3933656447525148,0.8715965371427395,1.0403982693830185,1.0058180709124864,0.989598560297216,-0.0021959104166171,0.0765228173484473,-0.5155897131825191,1.4060228826342747e-05,0.041975070216934,0.9782765966527768,1.928757069829064,7.042152023829213,1.358268960675094,1.4115344316690663,1.353007445795349,1.7151221080874115,1.6071410374612194,1.9550758497471867,2.48592688863473,1.060226741272729,23.0
184,97.7257292289692,626.2215568862275,202.1544143015256,23.3805860917584,204.06052567358552,,,,,280.23024638855634,280.6471936419574,0.3228161216721786,0.4474937716643772,572.5,88.95599999999999,0.1553816593886462,134.5,0.7213868485175086,500.0,776.0,67.06586826347305,82.93413173652695,302.0,1638.0,15.181818181818182,328.125,,0.0097134908240453,0.0703680912331782,0.0856445418858505,0.0218200271221156,0.1875461510651898,0.8216296063205855,0.3752041342011801,0.456658488587596,-2.4575497820353376,198.44753374520215,204.76971184947007,0.9691254236421672,127661.8982508761,1.031858184301677,5.813031407785106,845.1732122758871,0.688622754491018,0.6927710843373494,0.908695652173913,0.3333333333333333,49.5706664141175,49.79035613788936,49.29040138169319,48.493975903614455,0.4771394080509049,0.5228605919490952,137.0805156507822,143.4980636702406,0.5451041600251472,0.4548958399748531,151.18387318604238,138.10891129605525,0.5121865873320465,0.4878134126679536,144.30459327862312,140.8292683650847,0.6956758438740461,1.6054233810120873,0.7379554831376707,1.3690569757720656,0.2412492639147743,-0.5000896188691777,-0.1068940442137216,0.0048289618092589,0.3342910296405297,0.5151233084333268,1.7312212995577505,0.6999140379130748,1.0882373681496291,-1.1341519306117327,-1.3264401508188606,-0.2756939968704441,0.0009519503286016,0.1780856253769212,1.0394831687228474,1.113967676751304,7.693457006601817,1.1364049243211514,0.8904731593228659,1.2484921786737166,1.386427843292528,1.32290604174605,1.9753689839489577,4.090594325479577,0.9789355311571498,17.0
186,87.90183480040646,704.1927710843373,383.0639142312023,,,,,,,491.2582277595597,494.2813836967724,0.5439759252872602,0.697618958801729,675.0,257.9724,0.3821813333333333,356.0,0.7797608112910593,403.8,899.6,71.08433734939759,84.33734939759037,307.0,3329.0,16.6,335.9375,,,0.0118339264350745,0.0257135751656396,0.0042422300172972,0.0417897316180114,0.4602209672845464,0.2831778519959227,0.6153084542557116,-3.6607362099763705,349.5097182262576,418.1278157395079,0.8358920527879946,459111.5180673198,1.196326722648753,6.368888298328621,2000.8699178077088,0.5421686746987951,0.5555555555555556,0.8222222222222222,0.08,49.99775674099331,49.33073023627221,50.73418667052888,58.0246913580247,0.5325089273618189,0.4674910726381812,255.0484582376116,238.97139402132171,0.4619005183858127,0.5380994816141872,284.1733091251634,306.718764792678,0.4909431631334358,0.5090568368665643,270.0038755911926,274.9397459775868,0.6094365454377442,3.807419506709732,1.1588861132589772,1.505193433050494,-1.913271977908213,-0.7667177063800565,-0.4090440863736641,0.0061656289442255,0.9310973927234646,,,,,,,,,,0.7784406472911876,1.55814461804655,6.254557503636087,1.2489109668806564,0.9520649838046448,1.2896716695872,1.385030076609386,1.4716047479868968,1.9297583609714928,1.922200478560439,1.0753078558898426,11.0
187,95.96334477931264,626.9,96.176295958548,,,,,,,93.87304365662622,94.09841953937703,0.1534156898365736,0.149741655218737,618.5,83.76689999999999,0.1354355699272433,111.25,1.0245358221295855,555.8,692.0,29.04761904761905,61.42857142857143,340.0,1045.0,17.5,281.25,,0.0007303489922678,0.0178843262203631,0.0110859017805503,0.0048286201283008,0.0345291971214822,1.6132495645722056,0.5179479313533312,0.32105877647683,-4.502081087797328,66.53763055523021,118.88436502704506,0.55968360970001,24850.889973286263,1.7867237536864788,5.102312056494571,849.6540757430221,0.5238095238095238,0.5219512195121951,0.7570093457943925,0.1886792452830188,50.04063939311839,50.08049578774161,49.98674607213622,47.3170731707317,0.4823533627729011,0.5176466372270991,46.21149644673015,47.87227598195335,0.5066673956059167,0.4933326043940835,84.62257209546188,83.50157208000368,0.5008678196008159,0.499132180399184,68.17801006152129,68.05978014776552,1.062355066464205,0.6370414472555801,1.2959066565090305,1.2606690512140792,0.7985970556882416,0.0300924767924604,-0.5553144625781526,0.0006415581241289,0.0498665994967802,0.6705063223564346,1.906718712671842,0.944708387676291,1.0613231085327874,-0.8885407384973156,-0.6540257827701359,-0.4388401025901262,0.0004382202766866,0.1788352019183922,0.860666209405037,1.2297253004283506,7.115133434198859,0.8946915031980945,1.1546742753410268,1.3704981805603025,1.742113211844757,1.5994945493889765,1.765137996466283,2.752551961528582,0.8448935566967657,11.0
188,96.65474661783138,630.8857142857142,218.2311823105867,,,,,,,268.97042951600275,269.74588030994977,0.345912385348061,0.4263378032272133,554.0,69.6822,0.1257801444043321,129.5,0.8113575261908215,511.6,732.4000000000001,58.85714285714285,80.0,301.0,1784.0,10.9375,273.4375,,,0.0534017813965211,0.0549382200147659,0.0104103061199753,0.1187503075312624,0.9720333382146,0.44969804716053,0.4626364441229156,-2.9015459975518,190.73914116430024,243.1670565561731,0.7843954845924549,145711.70277820033,1.2748671042128268,5.870464543323354,1240.0227249269,0.64,0.6473988439306358,0.875,0.2222222222222222,49.81618832634634,49.43158200881325,50.044974073977,54.33526011560693,0.5158727573763237,0.4841272426236765,136.99742624475783,132.71526302751477,0.466637237943043,0.533362762056957,166.10948595368637,177.58900886708932,0.4853916509054459,0.5146083490945541,152.2508721181685,156.76606314961404,0.6558066307526441,2.8558708159072808,1.284501162060244,1.921514372927132,-0.9246154860189062,-1.575096836770479,-0.2769460693674565,0.0137985946536394,1.0103763736780238,0.652380051896275,2.3562853197828204,1.1872571842526745,1.4939849330394497,-1.0423443697792916,-1.3656924516940154,-0.3698257183832703,0.0035207572627515,0.4497418477273709,0.7395714870026198,0.6679538358280409,6.939503254565845,0.8615559012073655,1.0723150276025246,1.1189423083849492,1.056111627822048,1.051193479299175,1.9254896476223369,2.656194208279544,0.851566984209409,6.0
189,88.55585447683897,683.185628742515,146.69633510071688,,,,,,,191.62233816005823,192.20158616977497,0.2147239768066097,0.2804835612727424,649.0,100.8168,0.1553417565485362,146.0,0.765549238722807,591.0,771.8,50.29940119760479,71.25748502994011,339.0,1448.0,15.181818181818182,312.5,,,0.0485228044038857,0.0373665350728039,0.0211474769436024,0.107036816420292,1.298563120967604,0.4533281727415684,0.3490998361356343,-3.286979759269576,135.90704493545843,157.49855658627982,0.8629097807700017,67246.30410907857,1.1588697014277305,5.534638530247526,730.0812209857622,0.5449101796407185,0.5515151515151515,0.7802197802197802,0.2285714285714285,49.79501564354298,49.98142852244195,49.61251626457278,52.72727272727272,0.4833309654173804,0.5166690345826194,94.48557690157924,97.68984625131756,0.4820850649510368,0.5179149350489635,109.35494250953626,113.34589483301812,0.4826168258208688,0.5173831741791312,102.19106539636482,105.80783982319946,0.7969394189554205,2.672407491120648,1.416860352831128,1.6977338810506477,-0.2930867250570745,-0.3356799671110733,-0.3948986899816922,0.008498867511513,0.7376873564716203,0.87005787685878,6.238390175165406,1.4318404959604505,2.9233731357009662,-6.223495988213895,-4.361186199423851,-0.2609106519694451,0.0205491752232719,2.5605974996103344,0.767949635423673,1.189584066873836,6.906013049894308,0.9958813360789124,1.393443371143277,1.343033244375393,1.5287806564795072,1.4826433504307308,1.856687506447095,2.7764613237300755,1.0611311558046543,17.0
190,109.96224005778826,558.0564102564102,202.70401940241013,,,,,,,269.45301600659724,270.15015044821064,0.363232131513862,0.482841897439708,452.0,77.09519999999999,0.1705646017699114,259.5,0.7522796456560991,414.0,778.8000000000001,58.97435897435898,74.87179487179488,304.0,1228.0,10.833333333333334,148.4375,,,0.0208253047229975,0.0636825359979781,0.0147407863549511,0.0992486270759267,0.3270175158171888,0.209829650409832,0.641646518185687,-2.753844914150115,191.02500332049576,214.26657699410936,0.8915296356545027,128586.2467939122,1.121667704591632,5.816164630175771,961.3435983507554,0.6717948717948717,0.6804123711340206,0.8863636363636364,0.3777777777777777,50.033469069002045,50.154793788132224,49.82183827698506,51.546391752577314,0.4831688315155115,0.5168311684844885,132.7821563172907,137.3297438620738,0.555730712162833,0.4442692878371669,159.73005119893668,142.81623423391918,0.5235972132155413,0.4764027867844589,146.87544092237536,140.09984887568663,0.6328177211501935,1.999560047948384,1.0177671622200737,1.3873625992558594,-1.1684846854933788,-1.5991845730805867,-0.3151616214701814,0.0015598586704609,0.277735237175567,0.501914331811266,0.2904896621870634,0.5886213456656519,0.5400945425027173,0.8362087278029735,0.135230535220272,-0.6670517387695725,0.0010890024802546,0.0248677761662078,0.7252589028011132,0.4806848888584362,7.027875347289657,0.9761033905849807,0.7535614400236207,0.7652424508099724,0.681526607549347,0.8493352497048624,1.9871504266280064,3.532699254093925,0.8582629071922637,13.0
191,88.10074930013724,706.3592233009708,318.2052675245484,,,,,,,434.2531744411261,435.3162093835702,0.4504864621679401,0.6147766746950174,646.5,268.3506,0.4150821345707656,360.75,0.7327644016283157,440.0,874.0,86.89320388349515,95.14563106796116,304.0,2349.0,29.428571428571427,429.6875,,,0.032250439937577,0.1077561141910555,0.0171186525071103,0.1571252066357429,0.2992910442222872,0.2052531266504039,0.6857977564405833,-2.2278848073756388,307.81504361554545,328.8251206876044,0.9361056204339714,317983.58536655543,1.0682555239187728,6.209374811805589,1405.077006311162,0.6456310679611651,0.6536585365853658,0.8880597014925373,0.2352941176470588,50.01467204126704,50.397262268756215,49.82690785703835,48.78048780487805,0.4870768031377066,0.5129231968622934,214.826856867042,220.45300397314688,0.5173057531182897,0.4826942468817103,236.5040827701799,228.45520092187328,0.503187793017449,0.4968122069825507,225.9256067805691,224.48976122424585,0.6093662988447307,2.7053454838040776,0.926761764072737,1.6448706358685723,-2.015745267721241,-2.2728587056856564,-0.2345592730780993,0.0044582311875832,0.5585194868793528,0.7007850145467933,0.2545905803865285,0.8874829758362568,0.7642932388972654,1.3898181355960184,0.3898181355960184,-0.9838738996233102,0.0001479663245128,0.0092798436035245,1.0332527333318755,1.921050111735918,7.488661267463979,1.4954245463625735,1.2307943784883568,1.3048355822954292,1.806355809362568,1.7640235349255071,1.9871326885296228,2.963073813596142,1.194019499368267,19.0
192,95.42248200247438,645.5277777777778,211.37743210527185,,,,,,,309.5806434924103,310.6656650195556,0.3274490105335765,0.4795775707098743,622.5,217.2009,0.3489171084337349,290.5,0.6827863322483662,455.2,827.2,81.94444444444444,90.9722222222222,312.0,1244.0,28.8,429.6875,,,0.0275606622703853,0.1373225373419422,0.0431037323318466,0.2079869319441742,0.2007002113699479,0.1325115093182052,0.6602459878527415,-1.9854228329785728,219.67379841715612,203.9389943457461,1.0771544653433671,140743.51906066036,0.92837195794498,5.855398515609539,757.324973928362,0.6597222222222222,0.6713286713286714,0.875,0.3055555555555556,49.716693716010354,49.36363582149171,50.02726688737046,53.14685314685315,0.5237830756259784,0.4762169243740215,158.985815205696,151.59506383877311,0.4342550749193022,0.5657449250806976,134.39178573075554,153.3947891646028,0.4823403988745268,0.5176596011254729,147.20333132867788,152.49758149415788,0.4569175685489779,3.134020290584763,0.8276356648681102,1.736285822130001,-2.6109447209140395,-2.9052494914009324,-0.2100688339537361,0.0067836341530534,0.7972404915569112,0.6368104613725366,0.5679589041999407,1.132489114715702,0.8485096626157316,2.4428767166100007,1.453023305212876,-1.0,0.0001208254177791,0.0216360689170956,0.7005966621640081,1.8533173622274883,6.984127171566178,1.5998860262768086,1.2532568215032096,1.516127723166725,1.6679485026681231,1.877241729003286,2.03437271137173,7.249746472750276,1.1451963543970358,17.0
193,101.05061773285894,597.3526570048309,107.52704008621352,,,,,,,145.60606516760294,145.96073061072545,0.1800059626843577,0.2437522683797577,581.0,74.13,0.1275903614457831,100.0,0.7384791283415444,523.2,655.0,34.29951690821256,66.66666666666666,313.0,1159.0,17.25,289.0625,,,0.0128986456133827,0.0123132919226333,0.007617158658535,0.0328290961945511,1.0475383589073763,0.3929028547402912,0.3750725225471498,-4.397075955962773,103.20982240178684,111.84216789113432,0.9228167188448092,36264.06463043313,1.0836387980181046,5.266446590020129,484.7860495251513,0.5845410628019324,0.5902439024390245,0.8016528925619835,0.2244897959183673,49.93125859267592,49.70282663887088,50.18800254715337,52.6829268292683,0.5263408794916558,0.4736591205083444,74.87807976483033,71.03200927373105,0.4763865142868738,0.5236134857131262,77.19431291690758,80.93026981219843,0.4993617242511033,0.5006382757488967,76.04501553679155,76.14215295530673,0.5604445525951923,2.877637184030852,1.1801564923619503,1.459724062449837,-1.4593514299396162,-1.34456000377189,-0.4028482215759104,0.0025218599824755,0.5666470313360664,0.7645707451760579,0.4698774708505523,0.9515925799984232,0.7544240538601292,0.9347880775207033,0.5826219354060467,-0.919616896680294,7.623589509275959e-05,0.014514145188414,0.8949000936087854,1.2456539338162615,7.019337802805437,0.8908149002644065,1.219325150759621,1.2420576321439682,1.6302625164910656,1.5201128621619722,1.901218217315728,2.53016153814588,0.9663316951448429,12.0
194,81.4701021822057,760.6029411764706,276.1902404981832,,,,,,,364.1653101742784,366.9108670385389,0.3631201321296273,0.4787850407349225,740.0,314.3112,0.4247448648648648,421.0,0.7584199614345665,500.2,962.0,89.70588235294117,97.05882352941175,307.0,1419.0,17.0,429.6875,,,0.0523602357048365,0.1233945562483936,0.0224384888929286,0.1981932808461587,0.4243318124945094,0.2641877438089312,0.622597071513109,-2.092368283164696,259.4451621739866,295.73978142533235,0.8772751535947513,241048.92396867677,1.1398932203908516,6.089075307114527,1348.4470873864348,0.5588235294117647,0.582089552238806,0.8717948717948718,0.0909090909090909,50.23618212807403,50.11518721837742,50.42254386130347,50.74626865671642,0.5203936345628063,0.4796063654371935,187.1608447784467,179.67658234289812,0.4662799474136989,0.5337200525863008,201.94500563713245,216.05608766179657,0.4898144316031542,0.5101855683968459,194.69330640774896,198.70066338357577,0.6678044862496934,1.4182661583162082,0.753445204320927,1.3318302000460682,-1.3953069826754518,-2.2653300368227725,-0.0921886788782927,0.0012604254143612,0.1570345531942664,,,,,,,,,,0.2726037228514548,1.5581446180465497,5.929302730924407,1.7481929449794786,1.1317628927270027,0.5628229496516237,0.634743467764569,1.994477035058364,2.0091967746800967,5.305754015664563,1.4323441979412563,25.0
